81078465,57112,81078593,1877
81083465,57128,81083592,1882
81088465,57111,81088594,1867
81093465,57186,81093592,1863
81098465,57168,81098593,1879
81103465,57177,81103592,1867
81108465,57222,81108593,1865
81113465,57164,81113592,1858
81118465,57168,81118593,1867
81123465,57207,81123592,1853
81128465,57227,81128594,1812
81133465,57231,81133592,1807
81138465,57240,81138593,1825
81143465,57202,81143592,1819
81148465,57210,81148593,1807
81153465,57177,81153592,1812
81158465,57197,81158593,1811
81163465,57197,81163592,1808
81168465,57221,81168593,1811
81173465,57196,81173592,1818
81178465,57194,81178594,1840
81183465,57203,81183592,1830
81188465,57203,81188593,1829
81193465,57255,81193592,1827
81198465,57230,81198593,1843
81204465,57224,81204592,1837
81209465,57215,81209594,1836
81214465,57222,81214592,1885
81219465,57228,81219593,1973
81224465,57186,81224592,2053
81229465,57206,81229593,2119
81234465,57199,81234592,2187
81239465,57258,81239593,2170
81244465,57257,81244592,2063
81249465,57290,81249594,1843
81254465,57316,81254592,1636
81259465,57356,81259593,1561
81264465,57403,81264592,1638
81269465,57405,81269593,1755
81274465,57400,81274592,1840
81279465,57446,81279593,1859
81284465,57500,81284592,1865
81289465,57522,81289593,1842
81294465,57597,81294592,1842
81299465,57612,81299593,1872
81304465,57652,81304592,1868
81309465,57707,81309593,1858
81314465,57698,81314592,1870
81319465,57738,81319593,1885
81324465,57741,81324592,1868
81329465,57783,81329593,1867
81334465,57800,81334592,1872
81339465,57789,81339593,1891
81344465,57788,81344592,1893
81349465,57813,81349593,1876
81354465,57773,81354592,1883
81359465,57793,81359594,1899
81364465,57829,81364592,1890
81369465,57850,81369594,1889
81374465,57875,81374592,1905
81379465,57855,81379593,1921
81384465,57837,81384592,1910
81389465,57852,81389593,1913
81394465,57835,81394592,1921
81399465,57828,81399594,1937
81404465,57816,81404592,1934
81409465,57857,81409593,1936
81414465,57888,81414592,1955
81419465,57828,81419593,1973
81424465,57837,81424592,1985
81429465,57838,81429594,1976
81434465,57831,81434592,2003
81440465,57843,81440593,2034
81445465,57819,81445592,2017
81450465,57804,81450593,2033
81455465,57767,81455592,2064
81460465,57775,81460593,2086
81465465,57781,81465592,2066
81470465,57759,81470593,2055
81475465,57805,81475592,2070
81480465,57827,81480593,2059
81485465,57822,81485592,2025
81490465,57838,81490593,2001
81495465,57912,81495592,1978
81500465,57920,81500593,1957
81505465,57924,81505592,1922
81510465,57953,81510593,1877
81515465,57982,81515592,1855
81520465,58002,81520593,1853
81525465,58013,81525592,1821
81530465,58049,81530593,1792
81535465,58074,81535592,1791
81540465,58135,81540594,1792
81545465,58171,81545592,1778
81550465,58204,81550593,1771
81555465,58190,81555592,1766
81560465,58229,81560593,1776
81565465,58231,81565592,1762
81570465,58282,81570594,1750
81575465,58283,81575592,1776
81580465,58272,81580593,1773
81585465,58298,81585592,1775
81590465,58258,81590594,1772
81595465,58278,81595592,1779
81600465,58280,81600593,1790
81605465,58284,81605592,1787
81610465,58299,81610593,1776
81615465,58315,81615592,1807
81620465,58303,81620594,1803
81625465,58351,81625592,1805
81630465,58300,81630593,1803
81635465,58279,81635592,1808
81640465,58298,81640593,1824
81645465,58288,81645592,1819
81650465,58276,81650593,1811
81655465,58293,81655592,1835
81660465,58296,81660594,1840
81665465,58301,81665592,1825
81670465,58299,81670593,1808
81675465,58302,81675592,1823
81680465,58290,81680593,1835
81686465,58273,81686592,1814
81691465,58285,81691593,1817
81696465,58232,81696592,1821
81701465,58277,81701593,1815
81706465,58279,81706592,1805
81711465,58257,81711593,1802
81716465,58265,81716592,1815
81721465,58294,81721593,1813
81726465,58277,81726592,1815
81731465,58340,81731593,1803
81736465,58351,81736592,1825
81741465,58411,81741593,1827
81746465,58386,81746592,1803
81751465,58413,81751593,1792
81756465,58418,81756592,1811
81761465,58436,81761593,1821
81766465,58465,81766592,1803
81771465,58516,81771593,1802
81776465,58558,81776592,1828
81781465,58599,81781593,1821
81786465,58633,81786592,1790
81791465,58658,81791593,1813
81796465,58664,81796592,1819
81801465,58672,81801593,1829
81806465,58721,81806592,1819
81811465,58736,81811594,1808
81816465,58757,81816592,1824
81821465,58784,81821593,1831
81826465,58768,81826592,1817
81831465,58809,81831594,1820
81836465,58802,81836592,1840
81841465,58737,81841593,1840
81846465,58797,81846592,1824
81851465,58770,81851593,1821
81856465,58803,81856592,1834
81861465,58850,81861594,1840
81866465,58824,81866592,1833
81871465,58813,81871593,1830
81876465,58831,81876592,1844
81881465,58771,81881593,1856
81886465,58776,81886592,1846
81891465,58790,81891593,1839
81896465,58769,81896592,1843
81901465,58768,81901594,1856
81906465,58794,81906592,1851
81911465,58789,81911593,1861
81916465,58769,81916592,1875
81921465,58760,81921594,1887
81927465,58777,81927592,1878
81932465,58748,81932593,1874
81937465,58733,81937592,1907
81942465,58736,81942593,1904
81947465,58720,81947592,1889
81952465,58732,81952593,1865
81957465,58727,81957592,1871
81962465,58741,81962593,1856
81967465,58761,81967592,1839
81972465,58763,81972593,1827
81977465,58764,81977592,1840
81982465,58872,81982594,1840
81987465,58854,81987592,1822
81992465,58882,81992593,1829
81997465,58866,81997592,1840
82002465,58917,82002593,1840
82007465,58965,82007592,1825
82012465,58998,82012594,1835
82017465,59015,82017592,1843
82022465,59123,82022593,1840
82027465,59108,82027592,1827
82032465,59124,82032594,1834
82037465,59158,82037592,1840
82042465,59179,82042593,1856
82047465,59233,82047592,1895
82052465,59202,82052593,1968
82057465,59230,82057592,2109
82062465,59231,82062593,2178
82067465,59244,82067592,2145
82072465,59229,82072593,2059
82077465,59218,82077592,2000
82082465,59214,82082593,1837
82087465,59242,82087592,1630
82092465,59268,82092594,1598
82097465,59282,82097592,1721
82102465,59251,82102593,1829
82107465,59291,82107592,1857
82112465,59230,82112594,1834
82117465,59258,82117592,1838
82122465,59257,82122593,1857
82127465,59262,82127592,1856
82132465,59259,82132593,1872
82137465,59232,82137592,1883
82142465,59226,82142593,1901
82147465,59236,82147592,1877
82152465,59216,82152593,1885
82157465,59224,82157592,1895
82162465,59240,82162594,1907
82168465,59217,82168592,1891
82173465,59204,82173593,1902
82178465,59216,82178592,1913
82183465,59182,82183594,1918
82188465,59152,82188592,1915
82193465,59193,82193593,1908
82198465,59190,82198592,1930
82203465,59196,82203594,1923
82208465,59184,82208592,1914
82213465,59222,82213594,1930
82218465,59270,82218592,1951
82223465,59297,82223593,1953
82228465,59347,82228592,1943
82233465,59353,82233594,1941
82238465,59359,82238592,1963
82243465,59399,82243593,1977
82248465,59419,82248592,1968
82253465,59480,82253594,1978
82258465,59512,82258592,2015
82263465,59552,82263593,2011
82268465,59608,82268592,2019
82273465,59621,82273594,2029
82278465,59623,82278592,2064
82283465,59648,82283593,2077
82288465,59685,82288592,2064
82293465,59673,82293593,2081
82298465,59727,82298592,2089
82303465,59730,82303594,2099
82308465,59689,82308592,2086
82313465,59729,82313593,2067
82318465,59668,82318592,2063
82323465,59692,82323593,2037
82328465,59679,82328592,2006
82333465,59683,82333593,1978
82338465,59708,82338592,1953
82343465,59719,82343593,1922
82348465,59669,82348592,1888
82353465,59688,82353593,1872
82358465,59598,82358592,1849
82363465,59653,82363594,1835
82368465,59615,82368592,1797
82373465,59596,82373593,1806
82378465,59630,82378592,1793
82383465,59620,82383593,1800
82388465,59612,82388592,1786
82393465,59599,82393593,1782
82398465,59605,82398592,1797
82404465,59563,82404593,1791
82409465,59562,82409592,1769
82414465,59555,82414593,1787
82419465,59548,82419593,1793
82424465,59510,82424593,1785
82429465,59527,82429592,1771
82434465,59531,82434593,1776
82439465,59525,82439592,1803
82444465,59543,82444594,1808
82449465,59575,82449592,1801
82454465,59564,82454593,1801
82459465,59595,82459592,1819
82464465,59617,82464593,1808
82469465,59650,82469592,1797
82474465,59622,82474593,1807
82479465,59697,82479592,1819
82484465,59712,82484593,1811
82489465,59763,82489592,1799
82494465,59787,82494593,1808
82499465,59847,82499592,1824
82504465,59840,82504594,1808
82509465,59884,82509592,1795
82514465,59916,82514593,1796
82519465,59925,82519592,1827
82524465,59936,82524593,1808
82529465,59971,82529592,1814
82534465,60011,82534593,1821
82539465,59934,82539592,1821
82544465,60021,82544593,1808
82549465,59977,82549592,1805
82554465,59969,82554594,1808
82559465,59981,82559592,1821
82564465,59969,82564593,1799
82569465,59985,82569592,1799
82574465,60008,82574593,1808
82579465,59960,82579592,1816
82584465,60008,82584594,1808
82589465,59952,82589592,1792
82594465,59957,82594593,1816
82599465,59941,82599592,1823
82604465,59958,82604593,1823
82609465,59935,82609592,1808
82614465,59930,82614593,1808
82619465,59902,82619592,1834
82624465,59909,82624593,1825
82629465,59883,82629592,1810
82634465,59904,82634594,1837
82639465,59891,82639592,1840
82645465,59875,82645594,1824
82650465,59882,82650592,1819
82655465,59828,82655593,1829
82660465,59838,82660592,1830
82665465,59810,82665593,1827
82670465,59841,82670592,1815
82675465,59857,82675593,1829
82680465,59861,82680592,1846
82685465,59893,82685593,1838
82690465,59850,82690592,1819
82695465,59903,82695593,1837
82700465,59921,82700592,1849
82705465,59952,82705594,1840
82710465,59957,82710592,1829
82715465,59984,82715593,1835
82720465,59981,82720592,1859
82725465,60058,82725593,1826
82730465,60091,82730592,1824
82735465,60123,82735593,1845
82740465,60173,82740592,1851
82745465,60184,82745593,1846
82750465,60217,82750592,1840
82755465,60240,82755593,1851
82760465,60268,82760592,1872
82765465,60250,82765593,1849
82770465,60298,82770592,1841
82775465,60305,82775593,1855
82780465,60305,82780592,1875
82785465,60282,82785593,1870
82790465,60308,82790592,1882
82795465,60267,82795593,1891
82800465,60301,82800592,1905
82805465,60262,82805593,1897
82810465,60304,82810592,1904
82815465,60294,82815594,1907
82820465,60268,82820592,1914
82825465,60299,82825594,1888
82830465,60301,82830592,1872
82835465,60257,82835593,1855
82840465,60240,82840592,1856
82845465,60253,82845593,1839
82850465,60277,82850592,1834
82855465,60228,82855593,1830
82860465,60225,82860592,1840
82865465,60243,82865593,1820
82870465,60218,82870592,1825
82875465,60222,82875593,1835
82881465,60239,82881592,1840
82886465,60205,82886593,1845
82891465,60172,82891592,1834
82896465,60184,82896593,1846
82901465,60153,82901592,1850
82906465,60168,82906593,1835
82911465,60180,82911592,1815
82916465,60200,82916594,1850
82921465,60177,82921592,1902
82926465,60193,82926593,2001
82931465,60181,82931592,2135
82936465,60240,82936593,2229
82941465,60208,82941592,2221
82946465,60259,82946593,2143
82951465,60238,82951592,2077
82956465,60301,82956593,1903
82961465,60336,82961592,1669
82966465,60365,82966593,1623
82971465,60405,82971592,1742
82976465,60460,82976593,1850
82981465,60448,82981592,1883
82986465,60503,82986593,1843
82991465,60504,82991592,1812
82996465,60549,82996593,1846
83001465,60533,83001592,1859
83006465,60558,83006594,1859
83011465,60558,83011592,1873
83016465,60573,83016593,1887
83021465,60552,83021592,1890
83026465,60562,83026593,1872
83031465,60540,83031592,1876
83036465,60524,83036593,1899
83041465,60566,83041592,1904
83046465,60548,83046594,1899
83051465,60582,83051592,1891
83056465,60573,83056593,1904
83061465,60560,83061592,1911
83066465,60581,83066593,1919
83071465,60550,83071592,1904
83076465,60515,83076593,1922
83081465,60536,83081592,1915
83086465,60520,83086593,1915
83091465,60519,83091592,1928
83096465,60492,83096593,1936
83101465,60494,83101592,1943
83106465,60485,83106593,1939
83111465,60481,83111592,1936
83117465,60451,83117593,1968
83122465,60453,83122592,1981
83127465,60462,83127593,1989
83132465,60418,83132592,2010
83137465,60400,83137593,2032
83142465,60412,83142592,2057
83147465,60418,83147593,2064
83152465,60421,83152592,2071
83157465,60437,83157593,2101
83162465,60464,83162592,2096
83167465,60508,83167593,2106
83172465,60511,83172592,2087
83177465,60514,83177594,2106
83182465,60522,83182592,2112
83187465,60543,83187593,2081
83192465,60580,83192592,2064
83197465,60594,83197593,2059
83202465,60625,83202592,2016
83207465,60673,83207593,1985
83212465,60681,83212592,1943
83217465,60692,83217593,1936
83222465,60744,83222592,1889
83227465,60718,83227593,1871
83232465,60733,83232592,1840
83237465,60732,83237593,1834
83242465,60738,83242592,1810
83247465,60762,83247593,1795
83252465,60746,83252592,1779
83257465,60725,83257593,1787
83262465,60780,83262592,1779
83267465,60677,83267593,1766
83272465,60725,83272592,1761
83277465,60740,83277593,1779
83282465,60764,83282592,1761
83287465,60785,83287594,1767
83292465,60772,83292592,1763
83297465,60760,83297594,1783
83302465,60772,83302592,1787
83307465,60687,83307593,1776
83312465,60685,83312592,1785
83317465,60705,83317593,1782
83322465,60700,83322592,1791
83327465,60687,83327594,1776
83332465,60708,83332592,1781
83337465,60668,83337593,1808
83342465,60671,83342592,1809
83347465,60670,83347593,1795
83353465,60677,83353592,1804
83358465,60634,83358593,1813
83363465,60626,83363592,1799
83368465,60626,83368593,1782
83373465,60605,83373592,1802
83378465,60621,83378593,1819
83383465,60616,83383592,1813
83388465,60606,83388593,1789
83393465,60638,83393592,1808
83398465,60681,83398594,1818
83403465,60680,83403592,1809
83408465,60710,83408593,1795
83413465,60718,83413592,1783
83418465,60724,83418593,1808
83423465,60744,83423592,1812
83428465,60796,83428593,1792
83433465,60832,83433592,1801
83438465,60857,83438593,1809
83443465,60855,83443592,1803
83448465,60920,83448593,1803
83453465,60942,83453592,1804
83458465,60948,83458593,1817
83463465,60977,83463592,1803
83468465,60981,83468593,1805
83473465,60995,83473592,1810
83478465,61008,83478593,1819
83483465,61008,83483592,1808
83488465,61015,83488593,1803
83493465,61027,83493592,1799
83498465,61005,83498593,1817
83503465,60981,83503592,1810
83508465,60996,83508593,1806
83513465,61006,83513592,1808
83518465,61025,83518593,1833
83523465,61016,83523592,1819
83528465,61034,83528593,1808
83533465,61015,83533592,1809
83538465,61031,83538593,1839
83543465,60997,83543592,1821
83548465,60976,83548593,1808
83553465,60961,83553592,1833
83558465,60944,83558593,1836
83563465,60953,83563592,1809
83568465,60959,83568593,1814
83573465,60954,83573592,1821
83578465,60947,83578594,1831
83583465,60928,83583592,1839
83589465,60930,83589593,1826
83594465,60957,83594592,1833
83599465,60890,83599593,1850
83604465,60893,83604592,1829
83609465,60877,83609593,1832
83614465,60887,83614592,1840
83619465,60847,83619594,1853
83624465,60887,83624592,1840
83629465,60914,83629593,1831
83634465,60926,83634592,1837
83639465,60936,83639593,1855
83644465,60960,83644592,1840
83649465,60995,83649594,1837
83654465,61016,83654592,1853
83659465,61018,83659593,1855
83664465,61025,83664592,1855
83669465,61079,83669593,1854
83674465,61093,83674592,1855
83679465,61138,83679593,1866
83684465,61162,83684592,1852
83689465,61223,83689593,1851
83694465,61243,83694592,1855
83699465,61253,83699593,1889
83704465,61276,83704592,1890
83709465,61288,83709594,1867
83714465,61288,83714592,1875
83719465,61315,83719593,1905
83724465,61312,83724592,1915
83729465,61297,83729593,1904
83734465,61315,83734592,1907
83739465,61288,83739593,1906
83744465,61290,83744592,1883
83749465,61316,83749594,1849
83754465,61296,83754592,1846
83759465,61318,83759593,1857
83764465,61315,83764592,1840
83769465,61291,83769593,1823
83774465,61278,83774592,1831
83779465,61249,83779594,1845
83784465,61219,83784592,1841
83789465,61236,83789594,1819
83794465,61234,83794592,1836
83799465,61229,83799593,1847
83804465,61224,83804592,1840
83809465,61228,83809593,1818
83814465,61194,83814592,1835
83819465,61164,83819593,1855
83824465,61194,83824592,1842
83830465,61154,83830593,1840
83835465,61165,83835592,1885
83840465,61137,83840594,1989
83845465,61120,83845592,2116
83850465,61121,83850593,2238
83855465,61110,83855592,2287
83860465,61110,83860593,2243
83865465,61146,83865592,2160
83870465,61092,83870593,1987
83875465,61182,83875592,1727
83880465,61197,83880593,1595
83885465,61190,83885592,1693
83890465,61226,83890593,1822
83895465,61264,83895592,1906
83900465,61286,83900594,1893
83905465,61296,83905592,1845
83910465,61294,83910593,1834
83915465,61360,83915592,1857
83920465,61354,83920594,1889
83925465,61412,83925592,1875
83930465,61429,83930593,1873
83935465,61488,83935592,1889
83940465,61488,83940593,1899
83945465,61516,83945592,1890
83950465,61505,83950593,1898
83955465,61536,83955592,1904
83960465,61546,83960594,1905
83965465,61529,83965592,1904
83970465,61550,83970593,1910
83975465,61543,83975592,1913
83980465,61534,83980593,1934
83985465,61551,83985592,1910
83990465,61556,83990593,1921
83995465,61580,83995592,1923
84000465,61580,84000594,1939
84005465,61579,84005592,1939
84010465,61572,84010593,1945
84015465,61565,84015592,1962
84020465,61543,84020593,1980
84025465,61503,84025592,1977
84030465,61500,84030594,1968
84035465,61496,84035592,1990
84040465,61516,84040594,2017
84045465,61492,84045592,2017
84050465,61482,84050593,2021
84055465,61463,84055592,2059
84060465,61455,84060594,2082
84065465,61478,84065592,2077
84071465,61460,84071593,2085
84076465,61463,84076592,2113
84081465,61420,84081594,2131
84086465,61425,84086592,2118
84091465,61401,84091593,2115
84096465,61401,84096592,2129
84101465,61412,84101593,2129
84106465,61432,84106592,2102
84111465,61439,84111594,2079
84116465,61435,84116592,2062
84121465,61466,84121594,2032
84126465,61467,84126592,1981
84131465,61470,84131593,1953
84136465,61513,84136592,1920
84141465,61513,84141593,1904
84146465,61566,84146592,1853
84151465,61559,84151593,1823
84156465,61590,84156592,1829
84161465,61660,84161594,1808
84166465,61692,84166592,1792
84171465,61669,84171593,1775
84176465,61730,84176592,1778
84181465,61703,84181593,1775
84186465,61744,84186592,1759
84191465,61749,84191593,1756
84196465,61757,84196592,1779
84201465,61773,84201593,1777
84206465,61766,84206592,1765
84211465,61696,84211593,1757
84216465,61802,84216592,1776
84221465,61757,84221593,1776
84226465,61751,84226592,1772
84231465,61759,84231593,1776
84236465,61781,84236592,1789
84241465,61774,84241593,1810
84246465,61800,84246592,1792
84251465,61728,84251593,1786
84256465,61798,84256592,1818
84261465,61739,84261593,1829
84266465,61745,84266592,1808
84271465,61726,84271593,1792
84276465,61725,84276592,1813
84281465,61705,84281593,1813
84286465,61701,84286592,1807
84291465,61681,84291593,1795
84296465,61685,84296592,1815
84301465,61685,84301593,1822
84307465,61672,84307592,1799
84312465,61660,84312593,1791
84317465,61621,84317592,1815
84322465,61649,84322593,1818
84327465,61639,84327592,1794
84332465,61626,84332593,1797
84337465,61623,84337592,1810
84342465,61612,84342593,1807
84347465,61646,84347592,1790
84352465,61668,84352594,1778
84357465,61633,84357592,1803
84362465,61726,84362593,1808
84367465,61687,84367592,1783
84372465,61722,84372593,1791
84377465,61724,84377592,1806
84382465,61738,84382593,1801
84387465,61768,84387592,1776
84392465,61814,84392593,1798
84397465,61795,84397592,1811
84402465,61880,84402593,1808
84407465,61911,84407592,1808
84412465,61920,84412593,1812
84417465,61970,84417592,1810
84422465,61950,84422593,1811
84427465,61991,84427592,1805
84432465,61994,84432593,1808
84437465,62004,84437592,1824
84442465,62043,84442593,1808
84447465,61992,84447592,1810
84452465,61992,84452593,1807
84457465,62059,84457592,1822
84462465,61980,84462593,1825
84467465,62016,84467592,1813
84472465,61995,84472594,1811
84477465,62003,84477592,1818
84482465,62034,84482593,1820
84487465,62012,84487592,1821
84492465,62011,84492593,1819
84497465,61986,84497592,1843
84502465,61939,84502593,1830
84507465,61949,84507592,1811
84512465,61972,84512593,1819
84517465,61942,84517592,1834
84522465,61926,84522593,1840
84527465,61932,84527592,1814
84532465,61931,84532593,1821
84537465,61904,84537592,1841
84542465,61917,84542593,1850
84548465,61902,84548592,1825
84553465,61890,84553593,1837
84558465,61886,84558592,1854
84563465,61892,84563593,1845
84568465,61842,84568592,1830
84573465,61865,84573593,1840
84578465,61847,84578592,1846
84583465,61842,84583593,1849
84588465,61887,84588592,1830
84593465,61922,84593593,1849
84598465,61912,84598592,1870
84603465,61955,84603593,1863
84608465,61966,84608592,1850
84613465,61975,84613593,1857
84618465,61992,84618592,1904
84623465,62009,84623593,1908
84628465,62042,84628592,1893
84633465,62082,84633593,1879
84638465,62074,84638592,1907
84643465,62137,84643594,1910
84648465,62157,84648592,1907
84653465,62187,84653593,1892
84658465,62179,84658592,1904
84663465,62209,84663593,1878
84668465,62172,84668592,1857
84673465,62217,84673593,1845
84678465,62242,84678592,1849
84683465,62240,84683593,1842
84688465,62212,84688592,1821
84693465,62200,84693593,1826
84698465,62265,84698592,1844
84703465,62242,84703594,1839
84708465,62251,84708592,1829
84713465,62232,84713593,1841
84718465,62253,84718592,1841
84723465,62244,84723593,1855
84728465,62205,84728592,1814
84733465,62225,84733593,1827
84738465,62174,84738592,1847
84743465,62160,84743594,1840
84748465,62173,84748592,1842
84753465,62171,84753593,1902
84758465,62168,84758592,1996
84763465,62146,84763593,2125
84768465,62139,84768592,2229
84773465,62136,84773593,2275
84778465,62120,84778592,2235
84784465,62106,84784593,2125
84789465,62101,84789592,1905
84794465,62068,84794593,1648
84799465,62069,84799592,1600
84804465,62046,84804593,1744
84809465,62022,84809592,1863
84814465,62059,84814593,1936
84819465,62042,84819592,1891
84824465,62059,84824594,1850
84829465,62079,84829592,1843
84834465,62088,84834593,1870
84839465,62101,84839592,1882
84844465,62120,84844593,1887
84849465,62151,84849592,1875
84854465,62159,84854593,1888
84859465,62168,84859592,1919
84864465,62175,84864593,1907
84869465,62251,84869592,1904
84874465,62257,84874593,1905
84879465,62319,84879592,1918
84884465,62342,84884593,1928
84889465,62360,84889592,1910
84894465,62394,84894594,1927
84899465,62383,84899592,1936
84904465,62428,84904593,1936
84909465,62429,84909592,1924
84914465,62461,84914593,1946
84919465,62442,84919592,1967
84924465,62441,84924593,1961
84929465,62433,84929592,1949
84934465,62437,84934593,1968
84939465,62372,84939592,1992
84944465,62406,84944594,1993
84949465,62441,84949592,1995
84954465,62435,84954593,2011
84959465,62455,84959592,2032
84964465,62401,84964593,2031
84969465,62414,84969592,2031
84974465,62400,84974593,2047
84979465,62398,84979592,2087
84984465,62352,84984593,2095
84989465,62388,84989592,2096
84994465,62377,84994593,2111
84999465,62388,84999592,2139
85004465,62376,85004593,2133
85009465,62352,85009592,2119
85014465,62359,85014593,2127
85019465,62359,85019592,2122
85025465,62326,85025593,2093
85030465,62310,85030592,2059
85035465,62276,85035594,2043
85040465,62245,85040592,2021
85045465,62215,85045594,1971
85050465,62210,85050592,1920
85055465,62248,85055593,1901
85060465,62246,85060592,1875
85065465,62226,85065593,1857
85070465,62225,85070592,1823
85075465,62282,85075593,1815
85080465,62283,85080592,1808
85085465,62297,85085593,1791
85090465,62291,85090592,1767
85095465,62348,85095593,1778
85100465,62368,85100592,1779
85105465,62375,85105593,1775
85110465,62423,85110592,1758
85115465,62460,85115594,1767
85120465,62500,85120592,1779
85125465,62509,85125593,1776
85130465,62542,85130592,1776
85135465,62578,85135593,1779
85140465,62569,85140592,1788
85145465,62596,85145593,1793
85150465,62604,85150592,1781
85155465,62625,85155593,1804
85160465,62609,85160592,1813
85165465,62594,85165593,1806
85170465,62607,85170592,1794
85175465,62580,85175593,1808
85180465,62618,85180592,1834
85185465,62631,85185593,1825
85190465,62648,85190592,1807
85195465,62642,85195593,1827
85200465,62626,85200592,1811
85205465,62596,85205594,1815
85210465,62635,85210592,1801
85215465,62551,85215593,1815
85220465,62580,85220592,1830
85225465,62582,85225593,1819
85230465,62610,85230592,1799
85235465,62604,85235593,1808
85240465,62580,85240592,1815
85245465,62544,85245594,1809
85250465,62576,85250592,1805
85255465,62557,85255593,1808
85261465,62517,85261592,1830
85266465,62536,85266593,1805
85271465,62507,85271592,1809
85276465,62492,85276593,1814
85281465,62448,85281592,1827
85286465,62447,85286593,1809
85291465,62452,85291592,1800
85296465,62443,85296593,1822
85301465,62451,85301592,1830
85306465,62500,85306593,1809
85311465,62483,85311592,1814
85316465,62534,85316593,1821
85321465,62554,85321592,1830
85326465,62556,85326593,1825
85331465,62588,85331592,1819
85336465,62572,85336593,1835
85341465,62602,85341592,1839
85346465,62646,85346594,1821
85351465,62670,85351592,1811
85356465,62761,85356593,1825
85361465,62764,85361592,1835
85366465,62772,85366593,1815
85371465,62791,85371592,1811
85376465,62826,85376593,1839
85381465,62871,85381592,1845
85386465,62895,85386593,1834
85391465,62909,85391592,1837
85396465,62855,85396593,1845
85401465,62911,85401592,1847
85406465,62870,85406593,1842
85411465,62847,85411592,1831
85416465,62853,85416593,1861
85421465,62897,85421592,1868
85426465,62872,85426593,1847
85431465,62890,85431592,1850
85436465,62883,85436593,1851
85441465,62907,85441592,1862
85446465,62864,85446593,1852
85451465,62836,85451592,1849
85456465,62832,85456593,1870
85461465,62831,85461592,1869
85466465,62837,85466593,1857
85471465,62808,85471592,1847
85476465,62824,85476593,1866
85481465,62821,85481592,1871
85486465,62787,85486593,1857
85491465,62780,85491592,1853
85497465,62773,85497593,1872
85502465,62728,85502592,1872
85507465,62745,85507593,1864
85512465,62714,85512592,1876
85517465,62711,85517593,1881
85522465,62702,85522592,1887
85527465,62684,85527593,1883
85532465,62716,85532592,1884
85537465,62741,85537593,1906
85542465,62732,85542592,1903
85547465,62752,85547593,1872
85552465,62822,85552592,1888
85557465,62783,85557593,1927
85562465,62804,85562592,1907
85567465,62829,85567594,1895
85572465,62848,85572592,1887
85577465,62886,85577593,1903
85582465,62910,85582592,1869
85587465,62954,85587593,1840
85592465,63027,85592592,1847
85597465,63017,85597594,1861
85602465,63038,85602592,1855
85607465,63125,85607594,1840
85612465,63086,85612592,1840
85617465,63097,85617593,1854
85622465,63114,85622592,1854
85627465,63122,85627593,1831
85632465,63151,85632592,1850
85637465,63126,85637593,1863
85642465,63110,85642592,1847
85647465,63140,85647593,1844
85652465,63134,85652592,1840
85657465,63091,85657594,1859
85662465,63130,85662592,1899
85667465,63131,85667593,1955
85672465,63152,85672592,2057
85677465,63127,85677593,2195
85682465,63123,85682592,2262
85687465,63141,85687593,2237
85692465,63103,85692592,2165
85697465,63092,85697593,2032
85702465,63075,85702592,1763
85707465,63086,85707593,1558
85712465,63082,85712592,1629
85717465,63032,85717593,1786
85722465,63055,85722592,1861
85727465,63014,85727593,1881
85732465,63036,85732592,1854
85738465,63039,85738594,1847
85743465,63008,85743592,1863
85748465,62967,85748593,1877
85753465,62971,85753592,1873
85758465,62953,85758593,1883
85763465,62951,85763592,1888
85768465,62933,85768593,1878
85773465,62921,85773592,1885
85778465,62965,85778593,1904
85783465,62960,85783592,1900
85788465,62971,85788593,1901
85793465,63034,85793592,1901
85798465,63028,85798593,1910
85803465,63056,85803592,1926
85808465,63084,85808594,1903
85813465,63082,85813592,1911
85818465,63132,85818593,1924
85823465,63172,85823592,1922
85828465,63175,85828594,1921
85833465,63248,85833592,1934
85838465,63296,85838593,1945
85843465,63325,85843592,1939
85848465,63354,85848594,1929
85853465,63359,85853592,1964
85858465,63340,85858594,1984
85863465,63372,85863592,1986
85868465,63375,85868593,1998
85873465,63404,85873592,1997
85878465,63388,85878593,2021
85883465,63379,85883592,2047
85888465,63426,85888593,2039
85893465,63338,85893592,2072
85898465,63382,85898594,2090
85903465,63367,85903592,2097
85908465,63391,85908593,2096
85913465,63408,85913592,2091
85918465,63392,85918593,2112
85923465,63360,85923592,2109
85928465,63379,85928593,2085
85933465,63342,85933592,2088
85938465,63322,85938594,2075
85943465,63315,85943592,2044
85948465,63342,85948593,2000
85953465,63309,85953592,1979
85958465,63277,85958593,1953
85963465,63268,85963592,1910
85968465,63262,85968593,1872
85973465,63243,85973592,1856
85979465,63219,85979593,1847
85984465,63175,85984592,1817
85989465,63187,85989593,1785
85994465,63171,85994592,1779
85999465,63143,85999594,1780
86004465,63136,86004592,1792
86009465,63135,86009593,1759
86014465,63162,86014592,1773
86019465,63152,86019593,1767
86024465,63182,86024592,1763
86029465,63214,86029593,1757
86034465,63234,86034592,1775
86039465,63259,86039594,1803
86044465,63253,86044592,1795
86049465,63292,86049594,1777
86054465,63286,86054592,1786
86059465,63317,86059593,1789
86064465,63381,86064592,1781
86069465,63373,86069594,1785
86074465,63429,86074592,1797
86079465,63469,86079593,1824
86084465,63493,86084592,1810
86089465,63521,86089594,1796
86094465,63544,86094592,1806
86099465,63533,86099594,1823
86104465,63550,86104592,1809
86109465,63580,86109593,1808
86114465,63580,86114592,1812
86119465,63595,86119593,1830
86124465,63590,86124592,1796
86129465,63553,86129593,1807
86134465,63547,86134592,1816
86139465,63566,86139593,1823
86144465,63595,86144592,1803
86149465,63589,86149593,1793
86154465,63573,86154593,1801
86159465,63597,86159593,1813
86164465,63580,86164592,1803
86169465,63557,86169593,1800
86174465,63500,86174592,1807
86179465,63535,86179594,1827
86184465,63521,86184592,1799
86189465,63486,86189593,1808
86194465,63485,86194592,1815
86199465,63490,86199593,1816
86204465,63503,86204592,1812
86209465,63467,86209593,1793
86214465,63460,86214592,1795
86220465,63441,86220593,1825
86225465,63419,86225592,1810
86230465,63395,86230593,1817
86235465,63397,86235592,1810
86240465,63345,86240593,1815
86245465,63373,86245592,1805
86250465,63373,86250594,1815
86255465,63371,86255592,1818
86260465,63388,86260593,1829
86265465,63393,86265592,1809
86270465,63409,86270593,1807
86275465,63451,86275592,1818
86280465,63483,86280593,1827
86285465,63495,86285592,1809
86290465,63506,86290593,1806
86295465,63517,86295592,1818
86300465,63573,86300593,1833
86305465,63608,86305592,1831
86310465,63602,86310594,1824
86315465,63686,86315592,1826
86320465,63693,86320593,1833
86325465,63719,86325592,1828
86330465,63744,86330593,1808
86335465,63744,86335592,1837
86340465,63741,86340593,1839
86345465,63794,86345592,1840
86350465,63774,86350594,1820
86355465,63771,86355592,1849
86360465,63763,86360593,1853
86365465,63751,86365592,1839
86370465,63769,86370593,1827
86375465,63683,86375592,1847
86380465,63710,86380593,1857
86385465,63721,86385592,1853
86390465,63715,86390594,1856
86395465,63730,86395592,1889
86400465,63692,86400593,1903
86405465,63699,86405592,1872
86410465,63694,86410594,1857
86415465,63647,86415592,1885
86420465,63669,86420594,1906
86425465,63639,86425592,1895
86430465,63647,86430593,1872
86435465,63655,86435592,1866
86440465,63617,86440593,1869
86445465,63638,86445592,1834
86450465,63610,86450593,1824
86455465,63638,86455592,1826
86461465,63592,86461593,1827
86466465,63542,86466592,1822
86471465,63567,86471593,1817
86476465,63521,86476592,1833
86481465,63514,86481594,1843
86486465,63516,86486592,1843
86491465,63492,86491593,1811
86496465,63505,86496592,1851
86501465,63524,86501593,1849
86506465,63514,86506592,1841
86511465,63533,86511593,1832
86516465,63571,86516592,1844
86521465,63568,86521593,1872
86526465,63594,86526592,1909
86531465,63599,86531593,1981
86536465,63630,86536592,2091
86541465,63630,86541594,2195
86546465,63708,86546592,2245
86551465,63735,86551594,2202
86556465,63782,86556592,2117
86561465,63769,86561593,1904
86566465,63795,86566592,1633
86571465,63825,86571593,1535
86576465,63854,86576592,1680
86581465,63830,86581593,1822
86586465,63858,86586592,1863
86591465,63868,86591593,1869
86596465,63890,86596592,1882
86601465,63848,86601593,1875
86606465,63851,86606592,1858
86611465,63848,86611593,1856
86616465,63798,86616592,1875
86621465,63831,86621593,1898
86626465,63871,86626592,1893
86631465,63861,86631593,1885
86636465,63847,86636592,1898
86641465,63866,86641593,1909
86646465,63798,86646592,1906
86651465,63817,86651593,1904
86656465,63786,86656592,1913
86661465,63795,86661594,1931
86666465,63775,86666592,1911
86671465,63783,86671594,1904
86676465,63750,86676592,1919
86681465,63757,86681593,1929
86686465,63741,86686592,1918
86691465,63713,86691594,1920
86696465,63695,86696592,1937
86702465,63744,86702593,1948
86707465,63690,86707592,1944
86712465,63679,86712593,1947
86717465,63662,86717592,1970
86722465,63677,86722593,1973
86727465,63652,86727592,1979
86732465,63685,86732593,1994
86737465,63673,86737592,2026
86742465,63696,86742594,2039
86747465,63737,86747592,2029
86752465,63739,86752593,2032
86757465,63754,86757592,2071
86762465,63773,86762593,2082
86767465,63812,86767592,2096
86772465,63793,86772594,2090
86777465,63823,86777592,2108
86782465,63860,86782593,2115
86787465,63932,86787592,2094
86792465,63883,86792593,2088
86797465,63949,86797592,2081
86802465,63976,86802593,2047
86807465,63972,86807593,2015
86812465,64016,86812594,1978
86817465,64000,86817592,1971
86822465,64008,86822594,1927
86827465,64040,86827592,1885
86832465,64048,86832594,1857
86837465,64044,86837592,1850
86842465,64009,86842593,1820
86847465,64044,86847592,1790
86852465,64031,86852594,1771
86857465,64013,86857592,1778
86862465,64004,86862594,1775
86867465,63981,86867592,1743
86872465,64009,86872593,1749
86877465,64034,86877592,1758
86882465,63955,86882593,1766
86887465,64000,86887592,1747
86892465,64009,86892594,1745
86897465,63943,86897592,1750
86902465,63945,86902594,1775
86907465,63941,86907592,1761
86912465,63948,86912594,1760
86917465,63932,86917592,1787
86922465,63905,86922594,1789
86927465,63924,86927592,1767
86932465,63910,86932593,1790
86937465,63888,86937592,1797
86943465,63863,86943594,1790
86948465,63854,86948592,1781
86953465,63856,86953593,1791
86958465,63816,86958592,1803
86963465,63815,86963593,1791
86968465,63817,86968592,1790
86973465,63821,86973593,1795
86978465,63786,86978592,1805
86983465,63838,86983593,1798
86988465,63847,86988592,1783
86993465,63821,86993593,1794
86998465,63935,86998592,1817
87003465,63940,87003593,1805
87008465,63950,87008592,1803
87013465,63930,87013593,1787
87018465,63940,87018592,1808
87023465,64002,87023593,1803
87028465,64034,87028592,1793
87033465,64083,87033593,1787
87038465,64095,87038592,1792
87043465,64110,87043594,1803
87048465,64141,87048592,1776
87053465,64168,87053593,1790
87058465,64186,87058592,1805
87063465,64186,87063593,1796
87068465,64214,87068592,1799
87073465,64213,87073594,1793
87078465,64182,87078592,1798
87083465,64222,87083593,1803
87088465,64209,87088592,1799
87093465,64175,87093594,1799
87098465,64160,87098592,1811
87103465,64161,87103593,1801
87108465,64171,87108592,1794
87113465,64205,87113593,1803
87118465,64189,87118592,1814
87123465,64175,87123593,1809
87128465,64191,87128592,1802
87133465,64155,87133593,1808
87138465,64109,87138592,1827
87143465,64130,87143594,1815
87148465,64095,87148592,1805
87153465,64092,87153593,1810
87158465,64071,87158592,1817
87163465,64078,87163593,1828
87168465,64073,87168592,1818
87173465,64086,87173593,1835
87178465,64078,87178592,1856
87184465,64061,87184593,1838
87189465,64051,87189592,1818
87194465,63993,87194594,1836
87199465,63996,87199592,1867
87204465,63965,87204593,1844
87209465,63972,87209592,1844
87214465,63972,87214594,1863
87219465,64002,87219592,1867
87224465,64011,87224593,1862
87229465,63974,87229592,1870
87234465,64023,87234594,1873
87239465,64058,87239592,1872
87244465,64061,87244593,1861
87249465,64094,87249592,1831
87254465,64093,87254593,1824
87259465,64144,87259592,1815
87264465,64186,87264593,1811
87269465,64191,87269592,1805
87274465,64225,87274593,1817
87279465,64307,87279592,1812
87284465,64306,87284593,1799
87289465,64344,87289592,1787
87294465,64363,87294593,1815
87299465,64360,87299592,1824
87304465,64358,87304594,1817
87309465,64374,87309592,1802
87314465,64413,87314593,1806
87319465,64392,87319592,1823
87324465,64389,87324593,1811
87329465,64354,87329592,1814
87334465,64365,87334593,1857
87339465,64369,87339592,1933
87344465,64370,87344593,2016
87349465,64363,87349592,2090
87354465,64387,87354593,2160
87359465,64333,87359592,2149
87364465,64375,87364593,2057
87369465,64347,87369592,1893
87374465,64328,87374593,1663
87379465,64305,87379592,1535
87384465,64320,87384593,1599
87389465,64302,87389592,1755
87394465,64294,87394593,1851
87399465,64293,87399592,1877
87404465,64317,87404593,1859
87409465,64280,87409592,1819
87414465,64276,87414594,1842
87419465,64247,87419592,1863
87425465,64248,87425594,1851
87430465,64225,87430592,1847
87435465,64225,87435593,1867
87440465,64164,87440592,1879
87445465,64174,87445594,1874
87450465,64174,87450592,1872
87455465,64179,87455593,1885
87460465,64194,87460592,1899
87465465,64202,87465594,1879
87470465,64242,87470592,1886
87475465,64262,87475593,1899
87480465,64296,87480592,1907
87485465,64317,87485593,1889
87490465,64316,87490592,1878
87495465,64357,87495594,1913
87500465,64320,87500592,1924
87505465,64376,87505593,1911
87510465,64406,87510592,1909
87515465,64415,87515593,1925
87520465,64482,87520593,1937
87525465,64489,87525594,1936
87530465,64555,87530592,1936
87535465,64547,87535594,1956
87540465,64580,87540592,1978
87545465,64556,87545594,1968
87550465,64589,87550592,1975
87555465,64598,87555593,2005
87560465,64575,87560592,2023
87565465,64613,87565594,2020
87570465,64565,87570592,2032
87575465,64550,87575594,2047
87580465,64542,87580592,2064
87585465,64554,87585594,2064
87590465,64585,87590592,2063
87595465,64582,87595594,2069
87600465,64561,87600592,2057
87605465,64548,87605593,2031
87610465,64520,87610592,2009
87615465,64481,87615594,2000
87620465,64452,87620592,1979
87625465,64476,87625593,1947
87630465,64435,87630592,1906
87635465,64417,87635593,1888
87640465,64415,87640592,1872
87645465,64385,87645593,1835
87650465,64388,87650592,1810
87655465,64356,87655594,1808
87660465,64386,87660592,1807
87666465,64361,87666594,1786
87671465,64327,87671592,1767
87676465,64313,87676593,1783
87681465,64299,87681592,1787
87686465,64283,87686594,1771
87691465,64297,87691592,1750
87696465,64304,87696593,1776
87701465,64319,87701592,1785
87706465,64345,87706593,1776
87711465,64354,87711592,1767
87716465,64395,87716593,1789
87721465,64386,87721592,1792
87726465,64431,87726594,1787
87731465,64423,87731593,1791
87736465,64424,87736593,1806
87741465,64487,87741592,1819
87746465,64490,87746593,1799
87751465,64528,87751592,1802
87756465,64535,87756594,1839
87761465,64598,87761592,1825
87766465,64617,87766593,1811
87771465,64653,87771592,1806
87776465,64685,87776593,1820
87781465,64691,87781592,1830
87786465,64701,87786594,1828
87791465,64740,87791592,1818
87796465,64726,87796593,1833
87801465,64734,87801592,1830
87806465,64720,87806593,1818
87811465,64722,87811592,1815
87816465,64718,87816593,1834
87821465,64711,87821592,1829
87826465,64698,87826593,1808
87831465,64725,87831592,1815
87836465,64731,87836593,1817
87841465,64733,87841592,1808
87846465,64734,87846593,1808
87851465,64677,87851592,1815
87856465,64666,87856593,1826
87861465,64604,87861592,1829
87866465,64663,87866593,1808
87871465,64617,87871592,1809
87876465,64636,87876593,1819
87881465,64603,87881592,1825
87886465,64592,87886593,1822
87891465,64567,87891592,1815
87896465,64591,87896593,1828
87901465,64556,87901592,1834
87907465,64541,87907593,1811
87912465,64521,87912592,1817
87917465,64515,87917594,1815
87922465,64479,87922592,1814
87927465,64469,87927593,1815
87932465,64454,87932592,1818
87937465,64470,87937594,1840
87942465,64519,87942592,1837
87947465,64480,87947593,1828
87952465,64490,87952592,1829
87957465,64540,87957594,1841
87962465,64565,87962592,1842
87967465,64574,87967593,1815
87972465,64584,87972592,1827
87977465,64594,87977594,1823
87982465,64612,87982592,1838
87987465,64632,87987594,1824
87992465,64683,87992592,1830
87997465,64683,87997593,1845
88002465,64798,88002592,1843
88007465,64805,88007593,1847
88012465,64794,88012592,1837
88017465,64836,88017594,1861
88022465,64820,88022592,1856
88027465,64840,88027594,1847
88032465,64862,88032592,1856
88037465,64880,88037593,1888
88042465,64855,88042592,1902
88047465,64859,88047593,1889
88052465,64853,88052592,1873
88057465,64807,88057593,1901
88062465,64816,88062592,1914
88067465,64806,88067593,1888
88072465,64845,88072592,1884
88077465,64871,88077594,1882
88082465,64848,88082592,1870
88087465,64798,88087594,1848
88092465,64840,88092592,1841
88097465,64855,88097593,1856
88102465,64775,88102592,1851
88107465,64807,88107593,1823
88112465,64794,88112592,1829
88117465,64791,88117594,1842
88122465,64754,88122592,1846
88127465,64786,88127593,1838
88132465,64742,88132592,1850
88137465,64764,88137594,1851
88142465,64702,88142592,1858
88148465,64734,88148594,1846
88153465,64701,88153592,1853
88158465,64672,88158593,1857
88163465,64643,88163592,1865
88168465,64627,88168593,1905
88173465,64633,88173592,2010
88178465,64625,88178593,2138
88183465,64612,88183592,2227
88188465,64649,88188594,2197
88193465,64670,88193592,2110
88198465,64666,88198593,2066
88203465,64737,88203592,1893
88208465,64733,88208594,1665
88213465,64742,88213593,1623
88218465,64759,88218594,1753
88223465,64782,88223592,1843
88228465,64789,88228594,1878
88233465,64848,88233592,1855
88238465,64830,88238593,1861
88243465,64908,88243592,1856
88248465,64932,88248594,1862
88253465,64960,88253592,1882
88258465,64997,88258593,1911
88263465,64985,88263592,1903
88268465,65008,88268593,1894
88273465,65022,88273592,1901
88278465,65058,88278593,1914
88283465,65010,88283592,1910
88288465,65036,88288593,1904
88293465,64997,88293592,1911
88298465,65025,88298593,1925
88303465,64983,88303592,1914
88308465,64985,88308593,1921
88313465,64995,88313592,1925
88318465,64993,88318593,1945
88323465,64988,88323592,1940
88328465,65018,88328593,1926
88333465,64970,88333592,1943
88338465,64983,88338594,1957
88343465,64923,88343592,1947
88348465,64918,88348593,1946
88353465,64928,88353592,1962
88358465,64933,88358593,1984
88363465,64918,88363592,1984
88368465,64916,88368594,1985
88373465,64888,88373592,1997
88378465,64873,88378593,2029
88383465,64874,88383592,2043
88389465,64849,88389594,2039
88394465,64830,88394592,2064
88399465,64832,88399593,2085
88404465,64798,88404592,2091
88409465,64760,88409594,2085
88414465,64744,88414592,2098
88419465,64775,88419594,2106
88424465,64805,88424592,2098
88429465,64754,88429593,2087
88434465,64748,88434592,2089
88439465,64788,88439593,2071
88444465,64782,88444592,2054
88449465,64825,88449594,2015
88454465,64822,88454592,2000
88459465,64817,88459594,1968
88464465,64836,88464592,1938
88469465,64852,88469594,1895
88474465,64856,88474592,1872
88479465,64884,88479593,1861
88484465,64967,88484592,1833
88489465,64925,88489594,1808
88494465,64979,88494592,1821
88499465,64978,88499593,1811
88504465,64998,88504593,1793
88509465,65003,88509593,1762
88514465,65023,88514592,1773
88519465,65025,88519593,1790
88524465,65015,88524592,1783
88529465,64983,88529593,1781
88534465,65001,88534592,1790
88539465,64963,88539594,1793
88544465,64934,88544592,1788
88549465,64951,88549593,1789
88554465,64971,88554592,1815
88559465,64993,88559593,1814
88564465,64963,88564592,1803
88569465,64997,88569594,1792
88574465,64942,88574592,1803
88579465,64952,88579594,1808
88584465,64887,88584592,1808
88589465,64897,88589594,1802
88594465,64889,88594592,1802
88599465,64870,88599593,1814
88604465,64866,88604592,1808
88609465,64861,88609594,1787
88614465,64862,88614592,1808
88619465,64843,88619593,1809
88624465,64818,88624593,1808
88630465,64807,88630594,1791
88635465,64804,88635592,1798
88640465,64777,88640593,1802
88645465,64761,88645592,1819
88650465,64711,88650593,1794
88655465,64706,88655592,1809
88660465,64723,88660594,1814
88665465,64721,88665592,1815
88670465,64684,88670593,1807
88675465,64727,88675592,1809
88680465,64749,88680594,1822
88685465,64785,88685592,1813
88690465,64760,88690593,1798
88695465,64804,88695592,1805
88700465,64791,88700594,1805
88705465,64802,88705592,1779
88710465,64797,88710594,1773
88715465,64822,88715593,1796
88720465,64856,88720594,1810
88725465,64864,88725592,1807
88730465,64906,88730594,1793
88735465,64891,88735592,1812
88740465,64935,88740593,1810
88745465,64935,88745592,1814
88750465,64941,88750594,1795
88755465,64923,88755592,1809
88760465,64945,88760593,1830
88765465,64937,88765592,1813
88770465,64937,88770593,1808
88775465,64927,88775592,1822
88780465,64872,88780593,1840
88785465,64868,88785592,1821
88790465,64897,88790593,1827
88795465,64895,88795592,1830
88800465,64880,88800593,1841
88805465,64904,88805592,1818
88810465,64862,88810593,1816
88815465,64855,88815592,1828
88820465,64846,88820594,1853
88825465,64820,88825592,1837
88830465,64833,88830593,1826
88835465,64788,88835592,1836
88840465,64790,88840594,1838
88845465,64741,88845592,1838
88850465,64757,88850593,1820
88855465,64737,88855592,1849
88860465,64753,88860594,1852
88865465,64727,88865592,1830
88871465,64717,88871594,1844
88876465,64682,88876592,1852
88881465,64654,88881593,1855
88886465,64594,88886592,1846
88891465,64588,88891594,1840
88896465,64612,88896592,1858
88901465,64619,88901593,1874
88906465,64624,88906592,1872
88911465,64665,88911594,1875
88916465,64661,88916592,1872
88921465,64701,88921593,1882
88926465,64701,88926592,1890
88931465,64697,88931593,1907
88936465,64679,88936592,1904
88941465,64741,88941594,1895
88946465,64740,88946592,1867
88951465,64768,88951593,1847
88956465,64812,88956592,1840
88961465,64854,88961594,1837
88966465,64877,88966592,1809
88971465,64874,88971593,1818
88976465,64930,88976592,1835
88981465,64929,88981593,1834
88986465,64920,88986592,1822
88991465,64923,88991594,1825
88996465,64950,88996592,1837
89001465,64956,89001593,1842
89006465,64964,89006592,1822
89011465,64900,89011593,1818
89016465,64927,89016592,1838
89021465,64869,89021593,1850
89026465,64898,89026592,1840
89031465,64889,89031593,1832
89036465,64913,89036592,1874
89041465,64895,89041593,1961
89046465,64901,89046592,2069
89051465,64818,89051593,2183
89056465,64845,89056592,2255
89061465,64843,89061593,2195
89066465,64789,89066592,2118
89071465,64789,89071594,2006
89076465,64805,89076592,1769
89081465,64778,89081593,1586
89086465,64774,89086592,1649
89091465,64758,89091593,1784
89096465,64736,89096592,1882
89101465,64705,89101593,1877
89107465,64720,89107592,1839
89112465,64681,89112593,1834
89117465,64637,89117592,1861
89122465,64630,89122593,1867
89127465,64622,89127592,1856
89132465,64581,89132594,1863
89137465,64552,89137592,1872
89142465,64564,89142593,1885
89147465,64588,89147592,1873
89152465,64603,89152593,1888
89157465,64565,89157592,1902
89162465,64642,89162593,1902
89167465,64658,89167592,1877
89172465,64650,89172593,1899
89177465,64666,89177592,1914
89182465,64668,89182594,1905
89187465,64701,89187592,1904
89192465,64719,89192593,1920
89197465,64714,89197593,1933
89202465,64772,89202593,1943
89207465,64796,89207592,1920
89212465,64833,89212594,1930
89217465,64843,89217592,1954
89222465,64801,89222593,1963
89227465,64830,89227592,1958
89232465,64834,89232594,1973
89237465,64827,89237592,2000
89242465,64841,89242593,2002
89247465,64812,89247592,2000
89252465,64828,89252594,2018
89257465,64811,89257592,2032
89262465,64780,89262593,2063
89267465,64785,89267592,2058
89272465,64767,89272593,2073
89277465,64811,89277592,2101
89282465,64803,89282594,2112
89287465,64759,89287592,2112
89292465,64702,89292593,2113
89297465,64736,89297592,2112
89302465,64640,89302594,2114
89307465,64637,89307592,2079
89312465,64591,89312594,2073
89317465,64544,89317592,2059
89322465,64502,89322594,2011
89327465,64455,89327592,1979
89332465,64427,89332594,1945
89337465,64397,89337592,1930
89342465,64351,89342593,1903
89348465,64299,89348592,1857
89353465,64259,89353593,1826
89358465,64213,89358592,1825
89363465,64150,89363593,1794
89368465,64100,89368592,1775
89373465,64085,89373593,1783
89378465,64091,89378592,1790
89383465,64063,89383593,1776
89388465,64057,89388592,1749
89393465,64098,89393593,1773
89398465,64077,89398592,1776
89403465,64128,89403593,1770
89408465,64116,89408592,1765
89413465,64121,89413594,1773
89418465,64137,89418592,1793
89423465,64158,89423593,1792
89428465,64153,89428592,1776
89433465,64185,89433593,1775
89438465,64204,89438592,1802
89443465,64275,89443593,1808
89448465,64257,89448592,1792
89453465,64281,89453593,1793
89458465,64320,89458592,1807
89463465,64289,89463593,1807
89468465,64300,89468592,1783
89473465,64317,89473593,1793
89478465,64311,89478592,1799
89483465,64314,89483593,1797
89488465,64323,89488592,1798
89493465,64286,89493594,1805
89498465,64286,89498592,1827
89503465,64215,89503594,1809
89508465,64248,89508592,1787
89513465,64280,89513594,1808
89518465,64273,89518592,1805
89523465,64249,89523594,1803
89528465,64244,89528592,1798
89533465,64196,89533593,1805
89538465,64176,89538592,1808
89543465,64137,89543593,1803
89548465,64102,89548592,1787
89553465,64100,89553594,1799
89558465,64083,89558593,1811
89563465,64054,89563594,1804
89568465,64087,89568592,1794
89573465,63947,89573593,1798
89578465,63969,89578592,1811
89583465,63957,89583593,1811
89589465,63914,89589592,1808
89594465,63890,89594593,1809
89599465,63851,89599592,1807
89604465,63805,89604593,1808
89609465,63780,89609592,1798
89614465,63787,89614593,1817
89619465,63761,89619592,1830
89624465,63738,89624594,1823
89629465,63753,89629592,1810
89634465,63741,89634593,1817
89639465,63771,89639592,1835
89644465,63770,89644593,1813
89649465,63746,89649592,1807
89654465,63771,89654593,1823
89659465,63780,89659592,1826
89664465,63790,89664594,1816
89669465,63828,89669592,1815
89674465,63815,89674593,1825
89679465,63866,89679592,1841
89684465,63883,89684594,1834
89689465,63900,89689592,1830
89694465,63905,89694594,1828
89699465,63941,89699592,1835
89704465,63958,89704593,1821
89709465,63928,89709592,1819
89714465,63930,89714593,1823
89719465,63938,89719592,1840
89724465,63950,89724593,1833
89729465,63888,89729592,1837
89734465,63905,89734593,1839
89739465,63869,89739592,1856
89744465,63871,89744594,1854
89749465,63839,89749592,1840
89754465,63826,89754593,1840
89759465,63826,89759592,1852
89764465,63820,89764594,1856
89769465,63799,89769592,1842
89774465,63764,89774593,1855
89779465,63739,89779592,1854
89784465,63737,89784593,1847
89789465,63711,89789593,1847
89794465,63713,89794593,1851
89799465,63683,89799592,1863
89804465,63666,89804594,1845
89809465,63639,89809592,1845
89814465,63633,89814593,1872
89819465,63615,89819592,1874
89825465,63597,89825593,1878
89830465,63582,89830592,1851
89835465,63538,89835593,1872
89840465,63510,89840592,1902
89845465,63492,89845593,1906
89850465,63453,89850592,1893
89855465,63475,89855593,1894
89860465,63463,89860592,1911
89865465,63487,89865593,1911
89870465,63487,89870592,1924
89875465,63484,89875594,1915
89880465,63495,89880592,1914
89885465,63497,89885594,1881
89890465,63508,89890592,1861
89895465,63495,89895593,1853
89900465,63529,89900592,1854
89905465,63548,89905594,1848
89910465,63571,89910592,1834
89915465,63556,89915593,1850
89920465,63616,89920592,1859
89925465,63635,89925593,1844
89930465,63640,89930592,1854
89935465,63652,89935594,1851
89940465,63665,89940592,1866
89945465,63660,89945594,1855
89950465,63663,89950592,1854
89955465,63662,89955593,1847
89960465,63671,89960592,1875
89965465,63661,89965593,1845
89970465,63606,89970592,1844
89975465,63615,89975594,1904
89980465,63583,89980592,1983
89985465,63599,89985593,2086
89990465,63602,89990592,2199
89995465,63580,89995594,2251
90000465,63580,90000592,2208
90005465,63561,90005593,2114
90010465,63552,90010592,1962
90015465,63541,90015593,1739
90020465,63500,90020592,1600
90025465,63477,90025594,1680
90030465,63475,90030592,1800
90035465,63453,90035593,1886
90040465,63444,90040592,1915
90045465,63417,90045593,1851
90050465,63401,90050592,1847
90055465,63422,90055594,1872
90060465,63399,90060592,1901
90066465,63380,90066593,1898
90071465,63352,90071592,1875
90076465,63363,90076594,1904
90081465,63310,90081592,1907
90086465,63263,90086594,1893
90091465,63272,90091592,1897
90096465,63272,90096593,1914
90101465,63274,90101592,1911
90106465,63262,90106594,1913
90111465,63291,90111592,1914
90116465,63281,90116593,1917
90121465,63326,90121592,1925
90126465,63343,90126593,1911
90131465,63338,90131592,1917
90136465,63350,90136593,1947
90141465,63339,90141592,1955
90146465,63369,90146593,1946
90151465,63352,90151592,1945
90156465,63429,90156594,1959
90161465,63465,90161592,1973
90166465,63500,90166593,1987
90171465,63501,90171592,1983
90176465,63516,90176593,2000
90181465,63574,90181592,2014
90186465,63549,90186594,2018
90191465,63597,90191592,2023
90196465,63593,90196593,2054
90201465,63598,90201592,2081
90206465,63572,90206593,2080
90211465,63546,90211592,2085
90216465,63544,90216593,2102
90221465,63533,90221592,2128
90226465,63526,90226593,2113
90231465,63512,90231592,2098
90236465,63519,90236593,2109
90241465,63509,90241592,2112
90246465,63490,90246594,2087
90251465,63480,90251592,2055
90256465,63398,90256593,2061
90261465,63340,90261592,2032
90266465,63321,90266594,1994
90271465,63318,90271592,1964
90276465,63273,90276593,1935
90281465,63233,90281592,1920
90286465,63198,90286593,1874
90291465,63143,90291592,1856
90296465,63137,90296593,1846
90301465,63109,90301592,1835
90306465,63073,90306593,1808
90312465,63024,90312593,1808
90317465,62998,90317593,1810
90322465,62965,90322592,1805
90327465,62918,90327593,1791
90332465,62874,90332592,1787
90337465,62887,90337594,1808
90342465,62866,90342593,1805
90347465,62867,90347593,1781
90352465,62875,90352592,1792
90357465,62865,90357593,1807
90362465,62902,90362592,1808
90367465,62898,90367593,1807
90372465,62905,90372592,1809
90377465,62924,90377593,1824
90382465,62898,90382592,1840
90387465,62971,90387594,1809
90392465,62954,90392592,1811
90397465,62985,90397593,1838
90402465,63007,90402592,1823
90407465,63036,90407593,1813
90412465,63064,90412592,1822
90417465,63081,90417593,1833
90422465,63064,90422592,1831
90427465,63078,90427594,1830
90432465,63106,90432593,1827
90437465,63072,90437593,1837
90442465,63102,90442592,1835
90447465,63073,90447593,1811
90452465,63037,90452592,1811
90457465,63077,90457594,1821
90462465,63026,90462592,1826
90467465,63023,90467593,1818
90472465,63015,90472592,1808
90477465,63003,90477593,1831
90482465,63011,90482592,1816
90487465,62994,90487593,1805
90492465,62958,90492592,1809
90497465,62949,90497593,1813
90502465,62935,90502592,1819
90507465,62852,90507594,1808
90512465,62856,90512592,1810
90517465,62854,90517594,1809
90522465,62813,90522592,1810
90527465,62800,90527594,1808
90532465,62755,90532592,1808
90537465,62764,90537593,1821
90542465,62729,90542592,1822
90548465,62686,90548593,1798
90553465,62661,90553592,1808
90558465,62660,90558593,1823
90563465,62590,90563592,1823
90568465,62573,90568594,1815
90573465,62566,90573592,1813
90578465,62528,90578593,1837
90583465,62550,90583592,1840
90588465,62544,90588593,1816
90593465,62599,90593592,1823
90598465,62574,90598593,1840
90603465,62563,90603592,1834
90608465,62572,90608593,1835
90613465,62605,90613592,1840
90618465,62566,90618594,1853
90623465,62585,90623592,1849
90628465,62622,90628594,1840
90633465,62637,90633593,1850
90638465,62643,90638593,1857
90643465,62705,90643592,1859
90648465,62691,90648594,1826
90653465,62714,90653592,1837
90658465,62749,90658593,1850
90663465,62729,90663592,1842
90668465,62744,90668594,1824
90673465,62757,90673592,1841
90678465,62738,90678593,1859
90683465,62720,90683592,1850
90688465,62768,90688594,1840
90693465,62703,90693592,1849
90698465,62699,90698594,1857
90703465,62655,90703592,1869
90708465,62695,90708594,1847
90713465,62680,90713592,1859
90718465,62697,90718594,1872
90723465,62653,90723592,1871
90728465,62673,90728593,1858
90733465,62603,90733592,1861
90738465,62601,90738593,1879
90743465,62579,90743592,1876
90748465,62544,90748593,1861
90753465,62551,90753592,1878
90758465,62506,90758593,1904
90763465,62514,90763592,1914
90768465,62474,90768593,1891
90773465,62456,90773592,1886
90778465,62447,90778593,1906
90783465,62439,90783592,1916
90789465,62442,90789593,1895
90794465,62391,90794592,1886
90799465,62343,90799593,1885
90804465,62316,90804592,1874
90809465,62293,90809593,1852
90814465,62284,90814592,1856
90819465,62269,90819594,1846
90824465,62282,90824593,1839
90829465,62254,90829593,1821
90834465,62299,90834592,1835
90839465,62306,90839594,1856
90844465,62351,90844592,1841
90849465,62306,90849593,1838
90854465,62336,90854592,1841
90859465,62340,90859593,1862
90864465,62343,90864592,1851
90869465,62357,90869593,1841
90874465,62378,90874592,1854
90879465,62418,90879594,1870
90884465,62473,90884592,1847
90889465,62426,90889594,1872
90894465,62482,90894592,1923
90899465,62482,90899593,2023
90904465,62510,90904592,2119
90909465,62490,90909593,2210
90914465,62482,90914593,2251
90919465,62502,90919594,2225
90924465,62497,90924592,2109
90929465,62470,90929594,1872
90934465,62493,90934592,1638
90939465,62426,90939593,1579
90944465,62458,90944592,1705
90949465,62425,90949594,1816
90954465,62402,90954592,1863
90959465,62411,90959593,1895
90964465,62427,90964592,1869
90969465,62394,90969593,1844
90974465,62373,90974592,1859
90979465,62356,90979594,1886
90984465,62324,90984592,1893
90989465,62319,90989594,1884
90994465,62318,90994592,1898
90999465,62327,90999593,1909
91004465,62289,91004592,1895
91009465,62254,91009593,1901
91014465,62275,91014592,1909
91019465,62257,91019593,1926
91025465,62239,91025592,1907
91030465,62192,91030594,1910
91035465,62178,91035592,1921
91040465,62158,91040594,1934
91045465,62130,91045592,1938
91050465,62138,91050593,1925
91055465,62118,91055592,1936
91060465,62080,91060593,1949
91065465,62123,91065592,1951
91070465,62162,91070593,1950
91075465,62148,91075592,1964
91080465,62165,91080593,1975
91085465,62180,91085592,1967
91090465,62201,91090593,1965
91095465,62196,91095592,1999
91100465,62212,91100593,2020
91105465,62247,91105592,2002
91110465,62287,91110593,2009
91115465,62254,91115592,2031
91120465,62322,91120594,2061
91125465,62349,91125592,2047
91130465,62410,91130593,2069
91135465,62386,91135592,2086
91140465,62440,91140594,2107
91145465,62436,91145592,2110
91150465,62454,91150593,2096
91155465,62438,91155592,2096
91160465,62398,91160594,2097
91165465,62457,91165592,2055
91170465,62412,91170593,2032
91175465,62348,91175592,2022
91180465,62328,91180594,2016
91185465,62296,91185592,1967
91190465,62273,91190593,1917
91195465,62273,91195592,1902
91200465,62187,91200594,1877
91205465,62219,91205592,1855
91210465,62135,91210594,1815
91215465,62098,91215592,1815
91220465,62053,91220594,1815
91225465,62062,91225592,1771
91230465,62000,91230593,1766
91235465,62006,91235592,1766
91240465,61936,91240593,1776
91245465,61913,91245592,1765
91250465,61929,91250594,1759
91255465,61881,91255592,1776
91260465,61849,91260593,1778
91266465,61828,91266592,1769
91271465,61804,91271594,1776
91276465,61775,91276592,1787
91281465,61706,91281593,1794
91286465,61684,91286592,1797
91291465,61687,91291593,1794
91296465,61689,91296592,1799
91301465,61677,91301593,1810
91306465,61670,91306592,1798
91311465,61689,91311593,1781
91316465,61668,91316592,1809
91321465,61702,91321593,1812
91326465,61701,91326592,1791
91331465,61737,91331593,1797
91336465,61702,91336592,1818
91341465,61726,91341593,1808
91346465,61735,91346592,1791
91351465,61787,91351593,1808
91356465,61801,91356592,1811
91361465,61838,91361593,1809
91366465,61858,91366592,1792
91371465,61872,91371593,1787
91376465,61904,91376592,1781
91381465,61914,91381593,1806
91386465,61912,91386592,1789
91391465,61919,91391593,1790
91396465,61904,91396592,1807
91401465,61902,91401593,1808
91406465,61924,91406592,1786
91411465,61889,91411594,1776
91416465,61872,91416592,1805
91421465,61847,91421593,1798
91426465,61854,91426592,1783
91431465,61835,91431593,1796
91436465,61813,91436592,1791
91441465,61800,91441594,1802
91446465,61838,91446592,1795
91451465,61781,91451593,1780
91456465,61721,91456592,1806
91461465,61697,91461593,1804
91466465,61678,91466592,1786
91471465,61627,91471593,1792
91476465,61625,91476592,1824
91481465,61579,91481594,1827
91486465,61568,91486592,1811
91491465,61546,91491593,1808
91496465,61542,91496592,1817
91502465,61519,91502593,1813
91507465,61475,91507592,1818
91512465,61459,91512594,1808
91517465,61429,91517592,1827
91522465,61436,91522593,1837
91527465,61369,91527592,1809
91532465,61342,91532593,1817
91537465,61367,91537592,1823
91542465,61368,91542593,1814
91547465,61379,91547592,1814
91552465,61370,91552594,1825
91557465,61427,91557592,1845
91562465,61416,91562593,1840
91567465,61442,91567592,1815
91572465,61456,91572594,1835
91577465,61438,91577592,1839
91582465,61468,91582594,1840
91587465,61504,91587592,1835
91592465,61507,91592593,1840
91597465,61564,91597592,1863
91602465,61550,91602593,1872
91607465,61605,91607592,1879
91612465,61620,91612593,1893
91617465,61631,91617592,1886
91622465,61633,91622593,1875
91627465,61659,91627592,1878
91632465,61672,91632593,1887
91637465,61685,91637592,1903
91642465,61652,91642594,1885
91647465,61689,91647592,1872
91652465,61700,91652594,1839
91657465,61612,91657592,1847
91662465,61642,91662593,1850
91667465,61649,91667592,1829
91672465,61646,91672593,1829
91677465,61654,91677592,1840
91682465,61629,91682593,1837
91687465,61645,91687592,1812
91692465,61649,91692593,1825
91697465,61577,91697592,1836
91702465,61598,91702593,1845
91707465,61588,91707592,1820
91712465,61576,91712593,1838
91717465,61550,91717592,1849
91722465,61546,91722594,1843
91727465,61525,91727592,1829
91732465,61516,91732593,1840
91737465,61504,91737592,1899
91743465,61493,91743593,1968
91748465,61482,91748592,2029
91753465,61454,91753593,2128
91758465,61431,91758592,2209
91763465,61429,91763594,2198
91768465,61415,91768592,2103
91773465,61391,91773594,1920
91778465,61414,91778592,1697
91783465,61422,91783593,1562
91788465,61441,91788592,1600
91793465,61445,91793593,1742
91798465,61527,91798592,1840
91803465,61494,91803593,1856
91808465,61509,91808592,1858
91813465,61519,91813593,1857
91818465,61553,91818592,1843
91823465,61571,91823593,1866
91828465,61634,91828592,1846
91833465,61619,91833594,1871
91838465,61677,91838592,1883
91843465,61711,91843593,1871
91848465,61753,91848592,1870
91853465,61737,91853593,1889
91858465,61736,91858592,1891
91863465,61771,91863593,1903
91868465,61780,91868592,1899
91873465,61796,91873594,1903
91878465,61772,91878592,1916
91883465,61794,91883593,1907
91888465,61805,91888592,1904
91893465,61791,91893593,1911
91898465,61743,91898592,1923
91903465,61780,91903593,1920
91908465,61796,91908592,1923
91913465,61817,91913593,1922
91918465,61799,91918592,1949
91923465,61798,91923594,1949
91928465,61804,91928592,1951
91933465,61799,91933593,1963
91938465,61760,91938592,1973
91943465,61775,91943593,1984
91948465,61766,91948592,1981
91953465,61755,91953593,2005
91958465,61758,91958592,2021
91963465,61776,91963593,2026
91968465,61744,91968592,2026
91973465,61750,91973593,2046
91978465,61713,91978592,2081
91984465,61739,91984593,2083
91989465,61721,91989592,2077
91994465,61705,91994593,2080
91999465,61679,91999592,2096
92004465,61641,92004593,2064
92009465,61642,92009592,2040
92014465,61641,92014593,2034
92019465,61630,92019592,2022
92024465,61648,92024593,1984
92029465,61655,92029592,1941
92034465,61646,92034593,1913
92039465,61657,92039592,1890
92044465,61667,92044593,1856
92049465,61649,92049592,1814
92054465,61617,92054594,1823
92059465,61655,92059592,1803
92064465,61646,92064593,1803
92069465,61673,92069592,1762
92074465,61683,92074593,1757
92079465,61676,92079592,1779
92084465,61720,92084593,1757
92089465,61739,92089592,1744
92094465,61738,92094593,1755
92099465,61757,92099592,1759
92104465,61735,92104594,1747
92109465,61746,92109592,1743
92114465,61763,92114593,1746
92119465,61749,92119592,1782
92124465,61714,92124593,1757
92129465,61740,92129592,1745
92134465,61699,92134593,1763
92139465,61699,92139592,1773
92144465,61732,92144594,1781
92149465,61716,92149592,1762
92154465,61733,92154594,1781
92159465,61741,92159592,1803
92164465,61697,92164593,1792
92169465,61685,92169592,1782
92174465,61667,92174593,1783
92179465,61653,92179592,1808
92184465,61630,92184593,1803
92189465,61637,92189592,1784
92194465,61638,92194594,1800
92199465,61635,92199592,1808
92204465,61620,92204593,1803
92209465,61626,92209592,1798
92214465,61614,92214594,1809
92220465,61584,92220592,1809
92225465,61574,92225593,1793
92230465,61561,92230592,1775
92235465,61549,92235593,1802
92240465,61545,92240592,1794
92245465,61537,92245593,1783
92250465,61522,92250592,1770
92255465,61545,92255593,1776
92260465,61534,92260592,1794
92265465,61579,92265593,1786
92270465,61554,92270592,1782
92275465,61623,92275593,1792
92280465,61609,92280592,1789
92285465,61639,92285593,1799
92290465,61608,92290592,1796
92295465,61610,92295594,1808
92300465,61639,92300592,1808
92305465,61671,92305594,1795
92310465,61683,92310592,1804
92315465,61727,92315594,1799
92320465,61722,92320592,1809
92325465,61730,92325593,1799
92330465,61763,92330592,1798
92335465,61757,92335593,1815
92340465,61752,92340592,1817
92345465,61733,92345593,1808
92350465,61795,92350592,1800
92355465,61749,92355593,1808
92360465,61752,92360592,1825
92365465,61740,92365593,1808
92370465,61737,92370592,1807
92375465,61646,92375593,1819
92380465,61717,92380592,1824
92385465,61682,92385593,1814
92390465,61695,92390592,1799
92395465,61710,92395593,1820
92400465,61697,92400592,1822
92405465,61664,92405594,1811
92410465,61690,92410593,1807
92415465,61608,92415593,1829
92420465,61611,92420592,1839
92425465,61602,92425593,1823
92430465,61624,92430592,1835
92435465,61618,92435593,1838
92440465,61609,92440592,1851
92445465,61609,92445593,1842
92450465,61610,92450592,1847
92455465,61528,92455593,1866
92461465,61561,92461592,1869
92466465,61532,92466593,1873
92471465,61514,92471592,1873
92476465,61515,92476593,1872
92481465,61496,92481592,1873
92486465,61526,92486594,1859
92491465,61497,92491592,1849
92496465,61504,92496593,1842
92501465,61520,92501592,1841
92506465,61522,92506594,1817
92511465,61591,92511592,1813
92516465,61574,92516594,1828
92521465,61600,92521592,1833
92526465,61623,92526593,1819
92531465,61645,92531592,1808
92536465,61678,92536593,1819
92541465,61665,92541592,1831
92546465,61707,92546594,1819
92551465,61722,92551592,1811
92556465,61768,92556594,1837
92561465,61811,92561592,1839
92566465,61838,92566594,1819
92571465,61869,92571592,1826
92576465,61853,92576593,1886
92581465,61875,92581592,1951
92586465,61884,92586593,2035
92591465,61898,92591592,2148
92596465,61888,92596593,2176
92601465,61887,92601592,2112
92606465,61877,92606594,2022
92611465,61889,92611592,1885
92616465,61855,92616594,1687
92621465,61883,92621592,1567
92626465,61872,92626593,1648
92631465,61889,92631592,1770
92636465,61847,92636594,1851
92641465,61865,92641592,1871
92646465,61828,92646594,1841
92651465,61838,92651592,1835
92656465,61814,92656593,1855
92661465,61798,92661592,1879
92666465,61808,92666594,1870
92671465,61807,92671592,1865
92676465,61769,92676593,1900
92681465,61777,92681592,1903
92686465,61742,92686593,1906
92691465,61772,92691592,1898
92696465,61746,92696593,1911
92702465,61736,92702592,1917
92707465,61733,92707593,1904
92712465,61690,92712592,1920
92717465,61717,92717593,1917
92722465,61680,92722592,1927
92727465,61681,92727594,1911
92732465,61685,92732592,1920
92737465,61704,92737594,1936
92742465,61710,92742592,1936
92747465,61699,92747593,1930
92752465,61744,92752592,1936
92757465,61755,92757593,1946
92762465,61809,92762592,1947
92767465,61825,92767594,1954
92772465,61843,92772592,1966
92777465,61855,92777593,1989
92782465,61935,92782592,2007
92787465,61927,92787593,2000
92792465,62015,92792592,2022
92797465,62032,92797594,2032
92802465,62069,92802592,2045
92807465,62103,92807594,2055
92812465,62120,92812592,2059
92817465,62128,92817593,2092
92822465,62131,92822592,2096
92827465,62144,92827594,2085
92832465,62181,92832592,2094
92837465,62142,92837593,2103
92842465,62115,92842592,2094
92847465,62101,92847593,2060
92852465,62126,92852592,2045
92857465,62055,92857594,2030
92862465,62037,92862592,2000
92867465,62027,92867594,1956
92872465,61993,92872592,1926
92877465,61991,92877594,1904
92882465,61911,92882592,1876
92887465,61917,92887593,1854
92892465,61874,92892592,1827
92897465,61831,92897594,1815
92902465,61830,92902592,1808
92907465,61807,92907594,1792
92912465,61827,92912592,1778
92917465,61765,92917593,1790
92922465,61778,92922592,1781
92927465,61755,92927593,1771
92932465,61723,92932592,1766
92938465,61693,92938594,1783
92943465,61677,92943592,1774
92948465,61675,92948593,1777
92953465,61670,92953592,1791
92958465,61632,92958593,1805
92963465,61631,92963592,1802
92968465,61648,92968594,1774
92973465,61610,92973592,1795
92978465,61628,92978593,1818
92983465,61628,92983592,1807
92988465,61656,92988594,1778
92993465,61698,92993592,1789
92998465,61700,92998593,1816
93003465,61710,93003592,1809
93008465,61728,93008594,1808
93013465,61741,93013592,1808
93018465,61763,93018593,1824
93023465,61804,93023592,1819
93028465,61846,93028593,1803
93033465,61868,93033592,1820
93038465,61898,93038593,1823
93043465,61944,93043592,1811
93048465,61932,93048594,1803
93053465,61995,93053593,1799
93058465,61991,93058594,1809
93063465,61998,93063592,1812
93068465,62001,93068593,1808
93073465,61998,93073592,1809
93078465,61968,93078593,1815
93083465,61991,93083592,1817
93088465,61957,93088593,1793
93093465,61963,93093592,1794
93098465,61955,93098594,1822
93103465,61984,93103592,1814
93108465,61951,93108594,1811
93113465,61956,93113592,1811
93118465,61930,93118594,1833
93123465,61884,93123592,1815
93128465,61856,93128594,1815
93133465,61861,93133592,1810
93138465,61853,93138594,1832
93143465,61828,93143592,1823
93148465,61820,93148593,1814
93153465,61775,93153592,1813
93158465,61768,93158594,1836
93163465,61766,93163592,1824
93168465,61751,93168593,1817
93174465,61749,93174592,1845
93179465,61717,93179593,1845
93184465,61687,93184592,1830
93189465,61685,93189593,1809
93194465,61656,93194592,1825
93199465,61644,93199593,1840
93204465,61636,93204592,1824
93209465,61637,93209594,1828
93214465,61639,93214592,1839
93219465,61680,93219593,1846
93224465,61684,93224592,1840
93229465,61716,93229593,1825
93234465,61714,93234592,1855
93239465,61719,93239594,1841
93244465,61748,93244592,1835
93249465,61759,93249593,1827
93254465,61811,93254592,1829
93259465,61837,93259593,1851
93264465,61832,93264592,1853
93269465,61894,93269593,1839
93274465,61927,93274592,1841
93279465,61945,93279593,1851
93284465,61961,93284592,1844
93289465,61992,93289594,1838
93294465,62001,93294592,1851
93299465,62031,93299593,1863
93304465,62022,93304592,1850
93309465,62022,93309593,1855
93314465,62023,93314592,1857
93319465,61999,93319593,1884
93324465,62001,93324592,1879
93329465,62003,93329593,1893
93334465,62018,93334592,1887
93339465,62023,93339593,1903
93344465,62027,93344592,1904
93349465,62016,93349593,1906
93354465,61997,93354592,1904
93359465,61943,93359593,1908
93364465,61925,93364592,1890
93369465,61947,93369594,1871
93374465,61951,93374592,1849
93379465,61914,93379594,1840
93384465,61922,93384592,1835
93389465,61924,93389594,1825
93394465,61916,93394593,1833
93399465,61869,93399593,1839
93404465,61907,93404592,1823
93410465,61861,93410593,1824
93415465,61825,93415592,1844
93420465,61814,93420593,1851
93425465,61814,93425592,1836
93430465,61794,93430594,1827
93435465,61763,93435592,1841
93440465,61791,93440593,1840
93445465,61776,93445592,1839
93450465,61793,93450594,1837
93455465,61822,93455592,1879
93460465,61790,93460594,1938
93465465,61858,93465592,2055
93470465,61863,93470594,2173
93475465,61873,93475592,2241
93480465,61878,93480594,2192
93485465,61894,93485592,2096
93490465,61909,93490594,1993
93495465,61968,93495592,1779
93500465,62003,93500593,1598
93505465,62056,93505592,1651
93510465,62049,93510594,1776
93515465,62080,93515592,1863
93520465,62109,93520593,1875
93525465,62133,93525592,1823
93530465,62131,93530593,1810
93535465,62129,93535592,1848
93540465,62159,93540593,1876
93545465,62187,93545592,1862
93550465,62125,93550594,1856
93555465,62180,93555592,1870
93560465,62164,93560594,1878
93565465,62123,93565592,1884
93570465,62155,93570593,1886
93575465,62140,93575592,1902
93580465,62151,93580593,1904
93585465,62137,93585592,1887
93590465,62139,93590593,1878
93595465,62141,93595592,1896
93600465,62108,93600593,1915
93605465,62081,93605592,1909
93610465,62075,93610594,1906
93615465,62074,93615592,1910
93620465,62068,93620594,1927
93625465,62057,93625592,1932
93630465,62056,93630594,1917
93635465,62010,93635592,1931
93640465,62022,93640594,1952
93645465,62000,93645592,1959
93650465,61997,93650593,1955
93656465,61987,93656592,1979
93661465,61981,93661594,2000
93666465,61943,93666592,1997
93671465,61950,93671593,2006
93676465,61917,93676592,2032
93681465,61924,93681593,2042
93686465,61947,93686592,2059
93691465,61942,93691593,2064
93696465,61943,93696592,2099
93701465,61956,93701594,2117
93706465,61972,93706592,2112
93711465,61990,93711593,2111
93716465,61977,93716592,2114
93721465,61974,93721593,2109
93726465,61978,93726592,2078
93731465,62011,93731593,2065
93736465,61974,93736592,2055
93741465,62000,93741593,2015
93746465,62012,93746592,1959
93751465,62032,93751593,1925
93756465,62022,93756592,1903
93761465,61998,93761594,1870
93766465,62003,93766592,1823
93771465,62004,93771594,1813
93776465,62028,93776592,1807
93781465,61999,93781593,1797
93786465,61978,93786592,1777
93791465,61946,93791594,1772
93796465,61990,93796592,1776
93801465,61957,93801593,1775
93806465,61942,93806592,1747
93811465,61915,93811593,1744
93816465,61902,93816592,1766
93821465,61901,93821594,1762
93826465,61918,93826592,1749
93831465,61904,93831594,1753
93836465,61891,93836592,1766
93841465,61906,93841593,1771
93846465,61892,93846592,1773
93851465,61821,93851594,1767
93856465,61831,93856592,1767
93861465,61816,93861593,1791
93866465,61817,93866592,1787
93871465,61806,93871593,1783
93876465,61786,93876592,1797
93881465,61779,93881593,1811
93886465,61790,93886592,1782
93891465,61771,93891593,1784
93897465,61720,93897592,1813
93902465,61746,93902594,1806
93907465,61691,93907592,1801
93912465,61680,93912594,1810
93917465,61652,93917592,1824
93922465,61670,93922593,1811
93927465,61661,93927592,1794
93932465,61633,93932593,1808
93937465,61640,93937592,1815
93942465,61666,93942594,1811
93947465,61645,93947592,1808
93952465,61707,93952593,1787
93957465,61707,93957592,1824
93962465,61720,93962593,1808
93967465,61735,93967592,1800
93972465,61753,93972593,1795
93977465,61744,93977592,1811
93982465,61814,93982593,1811
93987465,61804,93987592,1793
93992465,61866,93992593,1810
93997465,61853,93997592,1828
94002465,61894,94002593,1823
94007465,61894,94007592,1808
94012465,61883,94012593,1814
94017465,61895,94017592,1818
94022465,61919,94022593,1817
94027465,61903,94027592,1807
94032465,61887,94032594,1814
94037465,61845,94037592,1821
94042465,61885,94042593,1821
94047465,61870,94047592,1811
94052465,61789,94052593,1809
94057465,61809,94057592,1833
94062465,61794,94062594,1831
94067465,61792,94067592,1808
94072465,61800,94072594,1824
94077465,61755,94077592,1838
94082465,61728,94082593,1829
94087465,61751,94087592,1816
94092465,61700,94092594,1815
94097465,61701,94097592,1840
94102465,61669,94102593,1836
94107465,61686,94107592,1822
94112465,61669,94112593,1831
94117465,61662,94117592,1845
94122465,61655,94122593,1851
94127465,61633,94127592,1831
94132465,61631,94132593,1831
94138465,61618,94138592,1850
94143465,61616,94143593,1843
94148465,61568,94148592,1824
94153465,61574,94153593,1841
94158465,61538,94158592,1858
94163465,61522,94163593,1845
94168465,61525,94168592,1829
94173465,61505,94173593,1846
94178465,61502,94178592,1855
94183465,61531,94183593,1841
94188465,61522,94188592,1839
94193465,61571,94193594,1853
94198465,61567,94198592,1854
94203465,61598,94203593,1842
94208465,61590,94208592,1846
94213465,61644,94213593,1855
94218465,61653,94218592,1859
94223465,61686,94223593,1845
94228465,61703,94228592,1851
94233465,61757,94233593,1863
94238465,61764,94238592,1862
94243465,61766,94243593,1860
94248465,61819,94248592,1846
94253465,61815,94253594,1871
94258465,61833,94258592,1875
94263465,61837,94263593,1866
94268465,61836,94268592,1856
94273465,61846,94273593,1873
94278465,61873,94278592,1885
94283465,61831,94283593,1872
94288465,61844,94288592,1847
94293465,61788,94293594,1873
94298465,61827,94298592,1902
94303465,61851,94303593,1904
94308465,61834,94308592,1891
94313465,61819,94313594,1892
94318465,61819,94318592,1929
94323465,61806,94323594,1918
94328465,61803,94328592,1907
94333465,61740,94333593,1895
94338465,61757,94338592,1895
94343465,61735,94343594,1880
94348465,61744,94348592,1860
94353465,61721,94353593,1856
94358465,61709,94358592,1840
94363465,61725,94363593,1840
94368465,61736,94368592,1822
94373465,61696,94373594,1831
94379465,61683,94379592,1851
94384465,61643,94384593,1828
94389465,61659,94389592,1831
94394465,61626,94394594,1846
94399465,61609,94399592,1859
94404465,61592,94404593,1839
94409465,61590,94409592,1827
94414465,61613,94414594,1857
94419465,61630,94419592,1862
94424465,61616,94424593,1854
94429465,61637,94429592,1837
94434465,61663,94434593,1849
94439465,61676,94439592,1894
94444465,61711,94444593,1968
94449465,61731,94449592,2065
94454465,61719,94454594,2209
94459465,61769,94459592,2299
94464465,61773,94464593,2266
94469465,61831,94469592,2185
94474465,61846,94474594,2111
94479465,61887,94479592,1858
94484465,61926,94484593,1616
94489465,61943,94489592,1653
94494465,61963,94494593,1821
94499465,61996,94499592,1918
94504465,61978,94504593,1907
94509465,61992,94509592,1850
94514465,61995,94514594,1840
94519465,62001,94519593,1860
94524465,62010,94524593,1862
94529465,61970,94529592,1857
94534465,61925,94534593,1879
94539465,61969,94539592,1878
94544465,61961,94544594,1887
94549465,61958,94549592,1863
94554465,61977,94554593,1889
94559465,61952,94559592,1904
94564465,61973,94564594,1885
94569465,61979,94569592,1880
94574465,61905,94574593,1909
94579465,61886,94579592,1913
94584465,61921,94584593,1904
94589465,61920,94589592,1896
94594465,61907,94594593,1913
94599465,61903,94599592,1931
94604465,61885,94604593,1920
94609465,61894,94609592,1926
94614465,61885,94614593,1943
94619465,61824,94619592,1950
94625465,61879,94625593,1955
94630465,61833,94630592,1947
94635465,61822,94635594,1979
94640465,61796,94640592,1990
94645465,61788,94645593,1988
94650465,61789,94650593,2000
94655465,61783,94655593,2021
94660465,61805,94660592,2055
94665465,61796,94665593,2066
94670465,61794,94670592,2073
94675465,61823,94675593,2098
94680465,61882,94680592,2125
94685465,61862,94685594,2116
94690465,61869,94690592,2128
94695465,61880,94695593,2133
94700465,61874,94700592,2145
94705465,61875,94705593,2130
94710465,61884,94710592,2099
94715465,61895,94715593,2091
94720465,61918,94720592,2080
94725465,61921,94725594,2039
94730465,61942,94730592,2003
94735465,61896,94735594,1978
94740465,61900,94740592,1949
94745465,61927,94745593,1899
94750465,61867,94750592,1856
94755465,61878,94755594,1840
94760465,61865,94760592,1823
94765465,61862,94765593,1795
94770465,61819,94770592,1781
94775465,61743,94775594,1779
94780465,61747,94780592,1779
94785465,61787,94785593,1776
94790465,61763,94790592,1755
94795465,61746,94795594,1781
94800465,61719,94800592,1769
94805465,61729,94805593,1766
94810465,61688,94810592,1769
94815465,61649,94815593,1779
94820465,61637,94820592,1776
94825465,61656,94825593,1769
94830465,61617,94830592,1750
94835465,61618,94835593,1786
94840465,61654,94840592,1787
94845465,61612,94845593,1791
94850465,61585,94850592,1789
94855465,61589,94855593,1795
94860465,61566,94860592,1812
94866465,61560,94866593,1795
94871465,61563,94871592,1791
94876465,61522,94876593,1821
94881465,61481,94881592,1825
94886465,61466,94886593,1802
94891465,61464,94891592,1801
94896465,61437,94896593,1807
94901465,61475,94901592,1823
94906465,61447,94906593,1795
94911465,61471,94911592,1799
94916465,61495,94916594,1811
94921465,61524,94921592,1824
94926465,61553,94926593,1797
94931465,61530,94931592,1793
94936465,61539,94936593,1809
94941465,61570,94941592,1821
94946465,61584,94946593,1808
94951465,61621,94951592,1802
94956465,61639,94956593,1813
94961465,61675,94961592,1821
94966465,61697,94966593,1810
94971465,61712,94971592,1802
94976465,61706,94976593,1817
94981465,61730,94981592,1816
94986465,61733,94986593,1806
94991465,61732,94991592,1793
94996465,61698,94996594,1822
95001465,61726,95001592,1814
95006465,61773,95006594,1801
95011465,61717,95011592,1793
95016465,61684,95016594,1813
95021465,61647,95021592,1812
95026465,61687,95026594,1800
95031465,61687,95031592,1802
95036465,61670,95036593,1823
95041465,61685,95041592,1814
95046465,61638,95046593,1808
95051465,61644,95051592,1802
95056465,61623,95056593,1809
95061465,61570,95061592,1811
95066465,61572,95066593,1813
95071465,61556,95071592,1808
95076465,61557,95076593,1825
95081465,61527,95081592,1833
95086465,61538,95086594,1817
95091465,61494,95091592,1814
95096465,61518,95096593,1821
95101465,61494,95101592,1827
95107465,61473,95107594,1811
95112465,61478,95112592,1819
95117465,61454,95117594,1837
95122465,61417,95122592,1838
95127465,61420,95127593,1825
95132465,61419,95132592,1829
95137465,61399,95137593,1840
95142465,61380,95142592,1839
95147465,61372,95147593,1839
95152465,61410,95152592,1840
95157465,61419,95157594,1845
95162465,61484,95162592,1843
95167465,61466,95167593,1847
95172465,61491,95172592,1831
95177465,61493,95177594,1850
95182465,61523,95182592,1845
95187465,61538,95187593,1834
95192465,61588,95192592,1845
95197465,61596,95197593,1857
95202465,61629,95202592,1855
95207465,61629,95207593,1831
95212465,61661,95212592,1837
95217465,61688,95217593,1846
95222465,61726,95222592,1843
95227465,61734,95227593,1830
95232465,61723,95232592,1836
95237465,61747,95237593,1840
95242465,61716,95242592,1843
95247465,61730,95247593,1839
95252465,61707,95252592,1840
95257465,61686,95257593,1851
95262465,61681,95262592,1853
95267465,61674,95267593,1847
95272465,61703,95272592,1841
95277465,61694,95277594,1871
95282465,61694,95282592,1850
95287465,61657,95287594,1840
95292465,61645,95292592,1854
95297465,61660,95297594,1872
95302465,61598,95302592,1871
95307465,61603,95307593,1846
95312465,61608,95312592,1853
95317465,61565,95317593,1892
95322465,61578,95322592,1913
95327465,61565,95327593,1889
95332465,61578,95332592,1872
95337465,61539,95337593,1905
95342465,61544,95342592,1927
95348465,61532,95348593,1919
95353465,61502,95353592,1926
95358465,61491,95358593,1904
95363465,61468,95363592,1879
95368465,61450,95368594,1862
95373465,61436,95373592,1852
95378465,61457,95378594,1845
95383465,61426,95383592,1839
95388465,61451,95388593,1827
95393465,61470,95393592,1840
95398465,61451,95398593,1843
95403465,61521,95403592,1841
95408465,61524,95408593,1829
95413465,61539,95413592,1837
95418465,61536,95418593,1855
95423465,61547,95423593,1851
95428465,61574,95428593,1835
95433465,61622,95433592,1855
95438465,61656,95438594,1861
95443465,61690,95443592,1843
95448465,61716,95448593,1840
95453465,61732,95453592,1831
95458465,61758,95458594,1853
95463465,61751,95463592,1875
95468465,61731,95468594,1915
95473465,61785,95473592,2022
95478465,61763,95478593,2181
95483465,61828,95483592,2281
95488465,61784,95488593,2275
95493465,61765,95493592,2205
95498465,61781,95498593,2147
95503465,61747,95503592,1920
95508465,61757,95508593,1635
95513465,61778,95513592,1602
95518465,61763,95518593,1769
95523465,61788,95523592,1883
95528465,61744,95528593,1919
95533465,61718,95533592,1885
95538465,61729,95538593,1854
95543465,61699,95543592,1840
95548465,61700,95548593,1842
95553465,61656,95553592,1872
95558465,61683,95558593,1885
95563465,61665,95563592,1878
95568465,61648,95568593,1863
95573465,61667,95573592,1879
95578465,61634,95578593,1891
95583465,61649,95583592,1896
95589465,61625,95589593,1878
95594465,61614,95594592,1898
95599465,61586,95599594,1904
95604465,61608,95604592,1914
95609465,61523,95609594,1890
95614465,61558,95614592,1910
95619465,61563,95619593,1917
95624465,61513,95624592,1921
95629465,61532,95629593,1915
95634465,61582,95634592,1945
95639465,61583,95639594,1943
95644465,61606,95644592,1946
95649465,61639,95649593,1939
95654465,61648,95654592,1968
95659465,61664,95659593,1995
95664465,61654,95664592,1978
95669465,61705,95669593,1997
95674465,61769,95674592,2014
95679465,61764,95679594,2037
95684465,61812,95684592,2034
95689465,61858,95689593,2055
95694465,61886,95694592,2083
95699465,61899,95699593,2099
95704465,61921,95704592,2104
95709465,61918,95709594,2110
95714465,61962,95714592,2111
95719465,61941,95719593,2135
95724465,61919,95724592,2131
95729465,61913,95729593,2113
95734465,61901,95734592,2123
95739465,61820,95739593,2122
95744465,61833,95744592,2089
95749465,61829,95749593,2062
95754465,61841,95754593,2032
95759465,61801,95759594,2013
95764465,61753,95764592,1952
95769465,61728,95769593,1904
95774465,61701,95774592,1878
95779465,61599,95779593,1862
95784465,61624,95784592,1827
95789465,61606,95789594,1802
95794465,61580,95794592,1806
95799465,61592,95799593,1799
95804465,61579,95804592,1771
95809465,61523,95809593,1753
95814465,61516,95814592,1762
95819465,61503,95819594,1771
95825465,61499,95825592,1750
95830465,61428,95830593,1767
95835465,61431,95835592,1776
95840465,61417,95840593,1779
95845465,61408,95845592,1762
95850465,61399,95850594,1765
95855465,61400,95855592,1785
95860465,61419,95860594,1783
95865465,61395,95865592,1781
95870465,61445,95870593,1759
95875465,61418,95875592,1799
95880465,61478,95880594,1807
95885465,61491,95885592,1795
95890465,61501,95890593,1797
95895465,61525,95895592,1799
95900465,61531,95900593,1820
95905465,61547,95905592,1796
95910465,61613,95910593,1793
95915465,61617,95915592,1808
95920465,61691,95920593,1811
95925465,61720,95925592,1807
95930465,61726,95930593,1803
95935465,61736,95935592,1805
95940465,61754,95940593,1810
95945465,61804,95945592,1795
95950465,61810,95950593,1782
95955465,61803,95955592,1811
95960465,61836,95960594,1802
95965465,61842,95965592,1786
95970465,61795,95970594,1786
95975465,61768,95975592,1802
95980465,61751,95980593,1799
95985465,61776,95985592,1779
95990465,61769,95990594,1778
95995465,61761,95995592,1795
96000465,61761,96000593,1800
96005465,61728,96005592,1782
96010465,61720,96010593,1783
96015465,61669,96015592,1797
96020465,61670,96020594,1808
96025465,61642,96025592,1802
96030465,61626,96030593,1785
96035465,61625,96035592,1800
96040465,61618,96040594,1805
96045465,61598,96045592,1789
96050465,61610,96050593,1784
96055465,61599,96055592,1806
96061465,61565,96061593,1808
96066465,61560,96066592,1806
96071465,61520,96071594,1799
96076465,61501,96076592,1808
96081465,61509,96081593,1817
96086465,61489,96086592,1795
96091465,61477,96091594,1803
96096465,61481,96096592,1814
96101465,61502,96101593,1815
96106465,61509,96106592,1809
96111465,61487,96111594,1821
96116465,61582,96116592,1821
96121465,61562,96121593,1840
96126465,61573,96126592,1820
96131465,61610,96131594,1824
96136465,61588,96136592,1826
96141465,61648,96141593,1831
96146465,61666,96146592,1814
96151465,61693,96151593,1823
96156465,61756,96156592,1830
96161465,61755,96161593,1851
96166465,61833,96166592,1834
96171465,61821,96171593,1842
96176465,61855,96176592,1845
96181465,61877,96181594,1853
96186465,61889,96186592,1840
96191465,61909,96191593,1840
96196465,61902,96196592,1866
96201465,61922,96201594,1857
96206465,61911,96206593,1845
96211465,61840,96211593,1845
96216465,61837,96216592,1870
96221465,61856,96221593,1863
96226465,61859,96226592,1856
96231465,61885,96231593,1843
96236465,61853,96236592,1862
96241465,61863,96241594,1872
96246465,61831,96246592,1854
96251465,61834,96251594,1861
96256465,61810,96256592,1866
96261465,61830,96261594,1867
96266465,61849,96266592,1855
96271465,61793,96271593,1856
96276465,61805,96276592,1869
96281465,61777,96281593,1872
96286465,61755,96286592,1865
96291465,61767,96291593,1858
96296465,61760,96296592,1871
96302465,61743,96302594,1871
96307465,61698,96307592,1871
96312465,61692,96312593,1895
96317465,61657,96317592,1926
96322465,61656,96322593,1909
96327465,61677,96327592,1894
96332465,61664,96332593,1909
96337465,61690,96337592,1941
96342465,61711,96342594,1922
96347465,61706,96347592,1913
96352465,61730,96352593,1911
96357465,61764,96357592,1907
96362465,61754,96362593,1880
96367465,61774,96367592,1855
96372465,61788,96372594,1850
96377465,61827,96377592,1852
96382465,61814,96382594,1855
96387465,61855,96387592,1855
96392465,61896,96392594,1851
96397465,61962,96397592,1864
96402465,61961,96402594,1857
96407465,61981,96407592,1845
96412465,61996,96412594,1849
96417465,62031,96417592,1882
96422465,61995,96422594,1864
96427465,62070,96427592,1857
96432465,62067,96432593,1862
96437465,62066,96437592,1862
96442465,62028,96442594,1854
96447465,62030,96447592,1844
96452465,62018,96452594,1882
96457465,62037,96457592,1950
96462465,62029,96462593,2033
96467465,62055,96467592,2140
96472465,62068,96472593,2243
96477465,62025,96477592,2302
96482465,62034,96482594,2239
96487465,62020,96487592,2128
96492465,61999,96492594,1904
96497465,61966,96497592,1670
96502465,61971,96502593,1600
96507465,61982,96507592,1738
96512465,61976,96512594,1873
96517465,61961,96517592,1938
96522465,61967,96522593,1933
96527465,61943,96527592,1869
96532465,61939,96532594,1869
96537465,61916,96537592,1887
96543465,61893,96543593,1908
96548465,61894,96548592,1898
96553465,61858,96553594,1909
96558465,61861,96558592,1921
96563465,61845,96563593,1904
96568465,61829,96568592,1904
96573465,61824,96573593,1917
96578465,61842,96578592,1936
96583465,61846,96583593,1915
96588465,61860,96588592,1910
96593465,61879,96593593,1920
96598465,61912,96598592,1941
96603465,61932,96603593,1932
96608465,61920,96608592,1935
96613465,61960,96613594,1939
96618465,61971,96618592,1951
96623465,61969,96623594,1948
96628465,62009,96628592,1939
96633465,61995,96633593,1970
96638465,62127,96638592,1968
96643465,62117,96643593,1968
96648465,62125,96648592,1963
96653465,62159,96653593,1983
96658465,62173,96658592,2018
96663465,62168,96663594,2001
96668465,62200,96668592,2013
96673465,62181,96673594,2031
96678465,62180,96678592,2064
96683465,62202,96683594,2070
96688465,62191,96688592,2067
96693465,62182,96693593,2096
96698465,62144,96698592,2119
96703465,62163,96703593,2113
96708465,62183,96708592,2111
96713465,62167,96713594,2130
96718465,62139,96718592,2125
96723465,62144,96723594,2122
96728465,62106,96728592,2112
96733465,62096,96733593,2074
96738465,62018,96738592,2069
96743465,62018,96743594,2030
96748465,62014,96748592,1986
96753465,61979,96753593,1953
96758465,61945,96758592,1933
96763465,61912,96763593,1895
96768465,61867,96768592,1863
96773465,61886,96773593,1847
96778465,61860,96778592,1841
96784465,61828,96784593,1807
96789465,61788,96789592,1777
96794465,61772,96794593,1793
96799465,61733,96799592,1779
96804465,61706,96804594,1776
96809465,61710,96809592,1771
96814465,61708,96814593,1783
96819465,61699,96819592,1791
96824465,61667,96824593,1776
96829465,61711,96829592,1770
96834465,61708,96834594,1771
96839465,61765,96839592,1787
96844465,61783,96844593,1790
96849465,61761,96849592,1789
96854465,61791,96854593,1808
96859465,61802,96859592,1802
96864465,61805,96864593,1806
96869465,61846,96869592,1793
96874465,61892,96874593,1821
96879465,61898,96879592,1825
96884465,61936,96884593,1805
96889465,61953,96889592,1808
96894465,61973,96894594,1817
96899465,61959,96899592,1835
96904465,61996,96904593,1811
96909465,62019,96909592,1805
96914465,62019,96914594,1810
96919465,62021,96919592,1835
96924465,62034,96924594,1808
96929465,62021,96929592,1805
96934465,62015,96934594,1808
96939465,62013,96939592,1811
96944465,62018,96944593,1795
96949465,62052,96949592,1802
96954465,62045,96954593,1813
96959465,62016,96959592,1808
96964465,62048,96964593,1802
96969465,61972,96969592,1799
96974465,61953,96974593,1810
96979465,61920,96979592,1821
96984465,61907,96984593,1807
96989465,61900,96989592,1806
96994465,61888,96994593,1803
96999465,61863,96999592,1819
97004465,61859,97004593,1817
97009465,61849,97009592,1802
97014465,61835,97014593,1814
97019465,61831,97019592,1823
97025465,61799,97025593,1808
97030465,61747,97030592,1814
97035465,61753,97035593,1825
97040465,61709,97040592,1827
97045465,61691,97045594,1822
97050465,61693,97050592,1813
97055465,61709,97055593,1836
97060465,61712,97060592,1819
97065465,61705,97065594,1821
97070465,61695,97070592,1807
97075465,61706,97075594,1839
97080465,61727,97080592,1833
97085465,61746,97085594,1827
97090465,61793,97090592,1824
97095465,61757,97095594,1837
97100465,61786,97100592,1841
97105465,61841,97105593,1840
97110465,61841,97110592,1828
97115465,61882,97115593,1846
97120465,61938,97120592,1843
97125465,61939,97125594,1837
97130465,61993,97130592,1838
97135465,62020,97135593,1853
97140465,62005,97140592,1849
97145465,62011,97145593,1840
97150465,62057,97150592,1840
97155465,62035,97155593,1842
97160465,62030,97160592,1840
97165465,62084,97165593,1829
97170465,62027,97170592,1837
97175465,62063,97175594,1863
97180465,62003,97180592,1863
97185465,62014,97185593,1847
97190465,62033,97190592,1830
97195465,62032,97195594,1847
97200465,62065,97200592,1852
97205465,62014,97205593,1845
97210465,62027,97210592,1847
97215465,62046,97215594,1872
97220465,61989,97220592,1888
97225465,61990,97225593,1858
97230465,61983,97230592,1857
97235465,61994,97235593,1882
97240465,61973,97240592,1909
97245465,61967,97245594,1912
97250465,61958,97250592,1891
97255465,61944,97255594,1898
97260465,61942,97260592,1907
97266465,61927,97266593,1899
97271465,61903,97271592,1893
97276465,61875,97276593,1889
97281465,61844,97281592,1882
97286465,61850,97286593,1857
97291465,61841,97291592,1850
97296465,61834,97296594,1861
97301465,61807,97301592,1840
97306465,61860,97306593,1844
97311465,61861,97311592,1835
97316465,61848,97316593,1844
97321465,61917,97321592,1841
97326465,61919,97326593,1835
97331465,61925,97331593,1834
97336465,61964,97336593,1849
97341465,61939,97341592,1850
97346465,61988,97346593,1836
97351465,61990,97351593,1834
97356465,62029,97356593,1856
97361465,62053,97361592,1853
97366465,62100,97366594,1833
97371465,62124,97371592,1861
97376465,62119,97376593,1913
97381465,62132,97381592,1984
97386465,62153,97386593,2078
97391465,62174,97391592,2192
97396465,62184,97396593,2256
97401465,62165,97401592,2245
97406465,62190,97406593,2128
97411465,62181,97411592,1920
97416465,62152,97416593,1692
97421465,62134,97421593,1575
97426465,62133,97426593,1649
97431465,62151,97431592,1805
97436465,62129,97436593,1878
97441465,62142,97441592,1905
97446465,62172,97446593,1883
97451465,62127,97451592,1859
97456465,62132,97456594,1869
97461465,62098,97461592,1868
97466465,62108,97466593,1869
97471465,62101,97471592,1881
97476465,62072,97476593,1892
97481465,62068,97481592,1890
97486465,62074,97486593,1887
97491465,62054,97491592,1883
97496465,62055,97496593,1904
97501465,62064,97501592,1903
97507465,62059,97507593,1888
97512465,62026,97512592,1911
97517465,61998,97517593,1927
97522465,62006,97522592,1914
97527465,61994,97527593,1902
97532465,61980,97532592,1915
97537465,61963,97537594,1935
97542465,62010,97542592,1931
97547465,62007,97547594,1921
97552465,62007,97552592,1926
97557465,62020,97557594,1961
97562465,62067,97562592,1968
97567465,62078,97567593,1955
97572465,62104,97572592,1973
97577465,62105,97577593,2002
97582465,62133,97582592,2004
97587465,62171,97587593,2000
97592465,62194,97592592,2006
97597465,62244,97597593,2059
97602465,62271,97602592,2064
97607465,62294,97607594,2064
97612465,62315,97612592,2091
97617465,62333,97617594,2119
97622465,62347,97622592,2115
97627465,62333,97627593,2111
97632465,62356,97632592,2117
97637465,62379,97637593,2132
97642465,62353,97642592,2112
97647465,62342,97647594,2091
97652465,62341,97652592,2075
97657465,62271,97657593,2068
97662465,62244,97662592,2028
97667465,62258,97667593,1983
97672465,62256,97672592,1951
97677465,62245,97677593,1920
97682465,62220,97682592,1872
97687465,62182,97687593,1840
97692465,62153,97692592,1833
97697465,62095,97697593,1821
97702465,62110,97702592,1803
97707465,62074,97707593,1782
97712465,62076,97712592,1759
97717465,62023,97717594,1771
97722465,62002,97722592,1755
97727465,62002,97727594,1739
97732465,61975,97732592,1727
97737465,61979,97737593,1744
97743465,61972,97743592,1743
97748465,61932,97748593,1742
97753465,61917,97753592,1744
97758465,61899,97758593,1759
97763465,61878,97763592,1759
97768465,61848,97768593,1737
97773465,61856,97773592,1766
97778465,61864,97778593,1789
97783465,61879,97783592,1777
97788465,61934,97788593,1771
97793465,61891,97793592,1781
97798465,61949,97798593,1802
97803465,61946,97803592,1783
97808465,61952,97808593,1782
97813465,61983,97813592,1797
97818465,61995,97818593,1808
97823465,62039,97823592,1801
97828465,62099,97828594,1795
97833465,62082,97833592,1790
97838465,62150,97838593,1809
97843465,62194,97843592,1799
97848465,62218,97848593,1785
97853465,62222,97853592,1788
97858465,62198,97858594,1807
97863465,62265,97863592,1791
97868465,62245,97868593,1767
97873465,62302,97873592,1785
97878465,62262,97878593,1791
97883465,62313,97883592,1791
97888465,62270,97888594,1792
97893465,62272,97893592,1804
97898465,62249,97898593,1808
97903465,62258,97903592,1801
97908465,62237,97908593,1778
97913465,62267,97913592,1792
97918465,62242,97918593,1794
97923465,62248,97923592,1792
97928465,62194,97928593,1787
97933465,62190,97933592,1798
97938465,62116,97938593,1799
97943465,62138,97943592,1798
97948465,62137,97948593,1797
97953465,62140,97953592,1790
97958465,62077,97958594,1808
97963465,62056,97963592,1802
97968465,62034,97968594,1792
97973465,62048,97973592,1809
97978465,62014,97978593,1831
97984465,62007,97984592,1808
97989465,61970,97989593,1807
97994465,61961,97994592,1817
97999465,61932,97999593,1827
98004465,61916,98004592,1811
98009465,61911,98009594,1802
98014465,61905,98014592,1814
98019465,61916,98019594,1826
98024465,61940,98024592,1826
98029465,61949,98029593,1808
98034465,61956,98034592,1830
98039465,61974,98039594,1838
98044465,61974,98044592,1825
98049465,61989,98049593,1816
98054465,62024,98054592,1827
98059465,62059,98059594,1846
98064465,62063,98064592,1826
98069465,62108,98069594,1825
98074465,62182,98074592,1852
98079465,62177,98079593,1859
98084465,62223,98084592,1847
98089465,62280,98089593,1838
98094465,62286,98094592,1856
98099465,62300,98099594,1891
98104465,62296,98104592,1873
98109465,62304,98109593,1861
98114465,62337,98114592,1861
98119465,62332,98119593,1877
98124465,62310,98124592,1874
98129465,62338,98129593,1872
98134465,62310,98134592,1873
98139465,62319,98139593,1874
98144465,62299,98144592,1852
98149465,62311,98149594,1818
98154465,62304,98154592,1815
98159465,62321,98159594,1824
98164465,62264,98164592,1815
98169465,62302,98169593,1801
98174465,62260,98174592,1821
98179465,62257,98179593,1831
98184465,62234,98184592,1802
98189465,62276,98189594,1801
98194465,62256,98194592,1808
98199465,62214,98199593,1829
98204465,62239,98204592,1810
98209465,62245,98209593,1805
98214465,62190,98214592,1810
98220465,62188,98220594,1823
98225465,62166,98225592,1843
98230465,62184,98230594,1887
98235465,62152,98235592,1971
98240465,62111,98240594,2067
98245465,62119,98245592,2157
98250465,62104,98250594,2197
98255465,62134,98255592,2197
98260465,62132,98260593,2077
98265465,62167,98265592,1844
98270465,62176,98270593,1610
98275465,62181,98275592,1535
98280465,62178,98280593,1651
98285465,62208,98285592,1789
98290465,62266,98290593,1870
98295465,62266,98295592,1884
98300465,62264,98300594,1863
98305465,62348,98305592,1830
98310465,62338,98310593,1839
98315465,62434,98315592,1859
98320465,62417,98320593,1872
98325465,62425,98325592,1847
98330465,62463,98330593,1857
98335465,62485,98335592,1871
98340465,62498,98340593,1872
98345465,62509,98345592,1861
98350465,62490,98350593,1866
98355465,62498,98355592,1892
98360465,62523,98360593,1891
98365465,62504,98365592,1885
98370465,62532,98370594,1882
98375465,62484,98375592,1904
98380465,62496,98380594,1903
98385465,62508,98385592,1897
98390465,62552,98390594,1889
98395465,62545,98395592,1923
98400465,62544,98400593,1921
98405465,62510,98405592,1918
98410465,62520,98410594,1915
98415465,62469,98415592,1946
98420465,62500,98420593,1951
98425465,62468,98425592,1947
98430465,62474,98430593,1951
98435465,62458,98435592,1975
98440465,62492,98440593,1982
98445465,62462,98445592,1980
98450465,62471,98450594,1989
98455465,62439,98455592,2017
98461465,62447,98461593,2042
98466465,62410,98466592,2058
98471465,62428,98471594,2077
98476465,62423,98476592,2097
98481465,62357,98481593,2096
98486465,62392,98486592,2077
98491465,62390,98491593,2055
98496465,62361,98496592,2080
98501465,62416,98501593,2057
98506465,62425,98506592,2031
98511465,62399,98511593,2000
98516465,62412,98516592,1984
98521465,62423,98521593,1954
98526465,62403,98526592,1910
98531465,62404,98531594,1891
98536465,62409,98536592,1871
98541465,62396,98541593,1841
98546465,62432,98546592,1809
98551465,62436,98551593,1801
98556465,62466,98556592,1789
98561465,62483,98561593,1783
98566465,62499,98566592,1757
98571465,62518,98571594,1766
98576465,62535,98576592,1767
98581465,62530,98581594,1750
98586465,62545,98586592,1744
98591465,62544,98591593,1754
98596465,62536,98596592,1761
98601465,62536,98601594,1765
98606465,62509,98606592,1758
98611465,62534,98611594,1765
98616465,62495,98616592,1776
98621465,62529,98621593,1770
98626465,62535,98626592,1765
98631465,62553,98631594,1774
98636465,62513,98636592,1795
98641465,62519,98641593,1794
98646465,62498,98646592,1773
98651465,62527,98651593,1774
98656465,62475,98656592,1813
98661465,62470,98661593,1802
98666465,62472,98666592,1791
98671465,62464,98671593,1794
98676465,62469,98676592,1817
98681465,62464,98681594,1808
98686465,62447,98686592,1803
98691465,62444,98691593,1808
98696465,62472,98696592,1808
98702465,62485,98702593,1814
98707465,62443,98707592,1804
98712465,62426,98712594,1803
98717465,62405,98717592,1819
98722465,62388,98722593,1809
98727465,62403,98727592,1786
98732465,62406,98732593,1795
98737465,62395,98737592,1807
98742465,62400,98742594,1808
98747465,62453,98747592,1806
98752465,62442,98752594,1798
98757465,62474,98757592,1808
98762465,62427,98762593,1791
98767465,62451,98767592,1791
98772465,62456,98772593,1807
98777465,62476,98777592,1808
98782465,62493,98782593,1808
98787465,62536,98787592,1792
98792465,62534,98792593,1794
98797465,62566,98797592,1812
98802465,62587,98802594,1809
98807465,62604,98807592,1792
98812465,62611,98812593,1824
98817465,62625,98817592,1825
98822465,62611,98822593,1806
98827465,62619,98827592,1810
98832465,62603,98832593,1815
98837465,62632,98837592,1823
98842465,62662,98842594,1809
98847465,62615,98847592,1808
98852465,62627,98852593,1815
98857465,62578,98857592,1841
98862465,62582,98862594,1823
98867465,62555,98867592,1825
98872465,62593,98872593,1827
98877465,62589,98877592,1827
98882465,62588,98882594,1827
98887465,62565,98887592,1809
98892465,62551,98892593,1811
98897465,62488,98897592,1833
98902465,62507,98902594,1837
98907465,62533,98907592,1811
98912465,62521,98912593,1824
98917465,62462,98917592,1840
98922465,62475,98922593,1833
98927465,62449,98927592,1825
98932465,62474,98932593,1825
98937465,62454,98937592,1841
98943465,62452,98943594,1833
98948465,62424,98948592,1831
98953465,62412,98953593,1857
98958465,62372,98958592,1862
98963465,62359,98963594,1852
98968465,62397,98968593,1842
98973465,62364,98973593,1841
98978465,62388,98978592,1872
98983465,62424,98983593,1869
98988465,62437,98988593,1872
98993465,62469,98993594,1887
98998465,62460,98998592,1885
99003465,62434,99003594,1881
99008465,62482,99008592,1891
99013465,62488,99013594,1907
99018465,62495,99018592,1919
99023465,62557,99023593,1890
99028465,62556,99028592,1868
99033465,62612,99033593,1872
99038465,62637,99038592,1871
99043465,62653,99043593,1840
99048465,62666,99048592,1837
99053465,62652,99053594,1838
99058465,62664,99058592,1849
99063465,62668,99063594,1840
99068465,62692,99068592,1827
99073465,62692,99073593,1841
99078465,62722,99078592,1858
99083465,62648,99083593,1847
99088465,62718,99088592,1835
99093465,62673,99093594,1853
99098465,62673,99098592,1847
99103465,62659,99103593,1843
99108465,62655,99108592,1820
99113465,62628,99113594,1857
99118465,62677,99118592,1935
99123465,62613,99123593,1987
99128465,62607,99128592,2112
99133465,62566,99133593,2207
99138465,62593,99138592,2183
99143465,62563,99143593,2086
99148465,62566,99148592,2005
99153465,62556,99153593,1869
99158465,62537,99158592,1682
99163465,62533,99163594,1648
99168465,62558,99168592,1763
99173465,62515,99173594,1857
99179465,62510,99179593,1887
99184465,62472,99184593,1827
99189465,62475,99189592,1807
99194465,62461,99194594,1854
99199465,62429,99199592,1872
99204465,62441,99204594,1874
99209465,62451,99209592,1857
99214465,62467,99214593,1869
99219465,62462,99219592,1873
99224465,62499,99224593,1877
99229465,62553,99229592,1877
99234465,62524,99234593,1904
99239465,62517,99239592,1906
99244465,62556,99244593,1893
99249465,62553,99249592,1882
99254465,62593,99254593,1899
99259465,62643,99259592,1918
99264465,62659,99264593,1903
99269465,62735,99269592,1901
99274465,62707,99274593,1931
99279465,62753,99279592,1936
99284465,62784,99284593,1925
99289465,62796,99289592,1920
99294465,62790,99294593,1945
99299465,62806,99299592,1968
99304465,62788,99304593,1956
99309465,62841,99309592,1954
99314465,62791,99314594,1969
99319465,62855,99319592,1985
99324465,62879,99324593,2000
99329465,62788,99329592,2001
99334465,62817,99334594,2014
99339465,62814,99339592,2047
99344465,62850,99344593,2047
99349465,62827,99349592,2045
99354465,62787,99354593,2083
99359465,62798,99359592,2098
99364465,62787,99364593,2102
99369465,62730,99369592,2093
99374465,62727,99374593,2113
99379465,62739,99379592,2099
99384465,62700,99384593,2085
99389465,62681,99389592,2064
99394465,62619,99394593,2062
99399465,62578,99399592,2046
99404465,62615,99404593,2011
99409465,62551,99409592,1969
99415465,62551,99415593,1935
99420465,62481,99420592,1912
99425465,62438,99425594,1855
99430465,62422,99430592,1838
99435465,62357,99435593,1827
99440465,62348,99440592,1821
99445465,62347,99445594,1795
99450465,62348,99450592,1782
99455465,62340,99455593,1789
99460465,62338,99460592,1787
99465465,62356,99465593,1771
99470465,62329,99470592,1762
99475465,62365,99475593,1771
99480465,62364,99480592,1771
99485465,62363,99485594,1759
99490465,62341,99490592,1771
99495465,62381,99495593,1779
99500465,62405,99500592,1783
99505465,62427,99505593,1776
99510465,62479,99510592,1781
99515465,62502,99515593,1783
99520465,62502,99520592,1792
99525465,62543,99525593,1790
99530465,62534,99530592,1792
99535465,62532,99535593,1799
99540465,62564,99540592,1797
99545465,62563,99545594,1793
99550465,62533,99550592,1795
99555465,62532,99555594,1815
99560465,62562,99560592,1808
99565465,62552,99565594,1799
99570465,62485,99570592,1799
99575465,62497,99575593,1822
99580465,62531,99580592,1807
99585465,62536,99585593,1808
99590465,62526,99590592,1808
99595465,62467,99595593,1815
99600465,62483,99600592,1815
99605465,62532,99605593,1803
99610465,62444,99610592,1795
99615465,62456,99615594,1814
99620465,62458,99620592,1809
99625465,62417,99625593,1790
99630465,62418,99630592,1796
99635465,62436,99635593,1807
99640465,62395,99640592,1808
99645465,62373,99645593,1806
99650465,62367,99650592,1795
99656465,62333,99656594,1815
99661465,62314,99661592,1821
99666465,62289,99666593,1801
99671465,62301,99671592,1802
99676465,62221,99676594,1825
99681465,62191,99681592,1819
99686465,62228,99686593,1802
99691465,62184,99691592,1797
99696465,62201,99696594,1822
99701465,62218,99701592,1819
99706465,62207,99706593,1811
99711465,62237,99711592,1809
99716465,62247,99716594,1831
99721465,62223,99721592,1813
99726465,62261,99726593,1808
99731465,62248,99731592,1833
99736465,62268,99736593,1825
99741465,62317,99741592,1825
99746465,62301,99746593,1804
99751465,62382,99751592,1814
99756465,62376,99756593,1836
99761465,62381,99761592,1839
99766465,62410,99766594,1827
99771465,62439,99771592,1829
99776465,62440,99776593,1840
99781465,62464,99781592,1846
99786465,62453,99786593,1829
99791465,62437,99791592,1831
99796465,62451,99796594,1867
99801465,62495,99801592,1837
99806465,62489,99806594,1831
99811465,62414,99811592,1834
99816465,62482,99816594,1847
99821465,62462,99821592,1853
99826465,62473,99826593,1838
99831465,62473,99831592,1842
99836465,62462,99836593,1855
99841465,62450,99841592,1855
99846465,62484,99846594,1844
99851465,62418,99851592,1850
99856465,62398,99856594,1861
99861465,62385,99861592,1857
99866465,62374,99866594,1841
99871465,62379,99871592,1841
99876465,62376,99876593,1863
99881465,62374,99881592,1867
99886465,62399,99886594,1856
99891465,62354,99891592,1857
99897465,62350,99897593,1867
99902465,62345,99902592,1862
99907465,62324,99907593,1865
99912465,62311,99912592,1893
99917465,62293,99917594,1908
99922465,62267,99922592,1888
99927465,62289,99927594,1874
99932465,62285,99932592,1907
99937465,62307,99937593,1925
99942465,62336,99942592,1914
99947465,62348,99947593,1894
99952465,62370,99952592,1878
99957465,62385,99957594,1879
99962465,62403,99962592,1857
99967465,62397,99967593,1829
99972465,62441,99972592,1832
99977465,62480,99977593,1854
99982465,62536,99982592,1834
99987465,62502,99987593,1821
99992465,62585,99992592,1824
99997465,62579,99997593,1840
100002465,62606,100002592,1833
100007465,62633,100007594,1813
100012465,62640,100012592,1830
100017465,62647,100017593,1856
100022465,62662,100022592,1840
100027465,62670,100027593,1825
100032465,62656,100032592,1828
100037465,62681,100037594,1847
100042465,62667,100042592,1872
100047465,62675,100047594,1942
100052465,62606,100052592,2101
100057465,62656,100057593,2235
100062465,62668,100062592,2277
100067465,62652,100067594,2185
100072465,62660,100072593,2128
100077465,62644,100077594,2035
100082465,62636,100082592,1772
100087465,62664,100087594,1584
100092465,62573,100092592,1691
100097465,62596,100097594,1849
100102465,62590,100102592,1911
100107465,62592,100107593,1877
100112465,62576,100112592,1840
100117465,62531,100117593,1840
100122465,62533,100122592,1850
100127465,62563,100127593,1853
100132465,62521,100132592,1867
100138465,62520,100138594,1872
100143465,62498,100143592,1862
100148465,62460,100148593,1872
100153465,62457,100153592,1889
100158465,62425,100158594,1902
100163465,62424,100163592,1897
100168465,62405,100168593,1887
100173465,62401,100173592,1900
100178465,62455,100178594,1931
100183465,62466,100183592,1915
100188465,62471,100188593,1904
100193465,62495,100193592,1920
100198465,62514,100198593,1931
100203465,62556,100203592,1924
100208465,62544,100208594,1921
100213465,62572,100213592,1941
100218465,62575,100218593,1971
100223465,62640,100223592,1953
100228465,62640,100228594,1958
100233465,62718,100233592,1978
100238465,62740,100238593,1999
100243465,62794,100243592,1989
100248465,62763,100248593,2002
100253465,62815,100253592,2032
100258465,62812,100258593,2046
100263465,62837,100263592,2066
100268465,62844,100268593,2061
100273465,62833,100273592,2095
100278465,62852,100278593,2109
100283465,62854,100283592,2117
100288465,62819,100288594,2110
100293465,62783,100293592,2126
100298465,62772,100298593,2143
100303465,62776,100303592,2135
100308465,62760,100308594,2112
100313465,62743,100313592,2109
100318465,62731,100318593,2096
100323465,62658,100323592,2064
100328465,62619,100328593,2018
100333465,62557,100333592,2000
100338465,62574,100338593,1974
100343465,62521,100343592,1935
100348465,62511,100348594,1882
100353465,62470,100353592,1867
100358465,62459,100358593,1843
100363465,62426,100363592,1815
100368465,62382,100368593,1787
100373465,62374,100373592,1793
100379465,62322,100379593,1791
100384465,62280,100384592,1759
100389465,62274,100389593,1756
100394465,62246,100394592,1757
100399465,62247,100399593,1767
100404465,62229,100404592,1747
100409465,62178,100409593,1744
100414465,62233,100414592,1756
100419465,62191,100419593,1759
100424465,62232,100424592,1755
100429465,62240,100429593,1753
100434465,62302,100434592,1781
100439465,62314,100439593,1787
100444465,62320,100444592,1767
100449465,62321,100449594,1765
100454465,62348,100454593,1792
100459465,62339,100459593,1795
100464465,62363,100464592,1788
100469465,62410,100469593,1788
100474465,62476,100474592,1802
100479465,62495,100479593,1818
100484465,62511,100484592,1797
100489465,62523,100489594,1803
100494465,62546,100494592,1821
100499465,62537,100499593,1825
100504465,62566,100504592,1798
100509465,62583,100509594,1785
100514465,62577,100514592,1806
100519465,62547,100519594,1808
100524465,62578,100524592,1795
100529465,62564,100529593,1791
100534465,62561,100534592,1799
100539465,62544,100539593,1799
100544465,62598,100544592,1785
100549465,62591,100549593,1793
100554465,62590,100554592,1795
100559465,62557,100559594,1794
100564465,62558,100564592,1790
100569465,62495,100569594,1787
100574465,62481,100574592,1803
100579465,62500,100579594,1806
100584465,62493,100584592,1798
100589465,62451,100589593,1798
100594465,62431,100594592,1808
100599465,62428,100599593,1813
100604465,62410,100604592,1794
100609465,62389,100609593,1786
100615465,62367,100615592,1806
100620465,62350,100620593,1803
100625465,62344,100625592,1808
100630465,62339,100630593,1805
100635465,62300,100635592,1808
100640465,62291,100640594,1811
100645465,62310,100645592,1792
100650465,62271,100650593,1795
100655465,62301,100655592,1805
100660465,62355,100660593,1807
100665465,62324,100665592,1803
100670465,62393,100670594,1806
100675465,62391,100675592,1808
100680465,62399,100680593,1815
100685465,62399,100685592,1802
100690465,62415,100690593,1808
100695465,62426,100695592,1831
100700465,62510,100700594,1815
100705465,62527,100705592,1809
100710465,62596,100710594,1808
100715465,62611,100715592,1815
100720465,62634,100720593,1829
100725465,62680,100725592,1815
100730465,62670,100730593,1818
100735465,62686,100735592,1840
100740465,62706,100740593,1840
100745465,62751,100745592,1827
100750465,62738,100750594,1826
100755465,62743,100755592,1847
100760465,62739,100760593,1851
100765465,62797,100765592,1824
100770465,62727,100770594,1840
100775465,62751,100775592,1846
100780465,62769,100780593,1871
100785465,62759,100785592,1847
100790465,62792,100790594,1841
100795465,62756,100795592,1851
100800465,62745,100800593,1871
100805465,62756,100805592,1861
100810465,62720,100810593,1845
100815465,62723,100815592,1874
100820465,62696,100820594,1870
100825465,62705,100825592,1858
100830465,62727,100830594,1898
100835465,62683,100835592,1920
100840465,62706,100840593,1913
100845465,62698,100845592,1895
100850465,62646,100850594,1897
100856465,62669,100856592,1942
100861465,62631,100861594,1936
100866465,62622,100866592,1903
100871465,62597,100871593,1883
100876465,62579,100876592,1889
100881465,62589,100881593,1872
100886465,62586,100886592,1837
100891465,62611,100891593,1830
100896465,62606,100896592,1843
100901465,62652,100901594,1840
100906465,62657,100906592,1823
100911465,62674,100911593,1821
100916465,62662,100916592,1837
100921465,62716,100921594,1835
100926465,62696,100926592,1828
100931465,62706,100931593,1836
100936465,62740,100936592,1841
100941465,62810,100941593,1846
100946465,62792,100946592,1824
100951465,62823,100951594,1824
100956465,62846,100956592,1840
100961465,62907,100961593,1872
100966465,62931,100966592,1927
100971465,62912,100971593,2058
100976465,62969,100976592,2214
100981465,62948,100981593,2310
100986465,62966,100986592,2272
100991465,62976,100991593,2192
100996465,62966,100996592,2126
101001465,62931,101001593,1850
101006465,62981,101006592,1595
101011465,62959,101011593,1611
101016465,62949,101016592,1792
101021465,62932,101021594,1904
101026465,62975,101026592,1900
101031465,62973,101031593,1843
101036465,62961,101036592,1836
101041465,62917,101041593,1849
101046465,62943,101046592,1840
101051465,62901,101051594,1877
101056465,62889,101056592,1894
101061465,62889,101061593,1887
101066465,62875,101066592,1875
101071465,62877,101071593,1885
101076465,62839,101076592,1899
101081465,62884,101081593,1897
101086465,62824,101086592,1872
101091465,62799,101091593,1892
101097465,62813,101097592,1911
101102465,62809,101102594,1904
101107465,62786,101107592,1904
101112465,62760,101112593,1922
101117465,62763,101117592,1924
101122465,62748,101122593,1931
101127465,62740,101127592,1925
101132465,62744,101132593,1939
101137465,62767,101137592,1968
101142465,62823,101142594,1948
101147465,62798,101147592,1942
101152465,62836,101152594,1958
101157465,62834,101157592,1999
101162465,62878,101162593,1990
101167465,62904,101167592,1989
101172465,62885,101172593,2018
101177465,62934,101177592,2041
101182465,62957,101182593,2054
101187465,62975,101187592,2047
101192465,63032,101192594,2091
101197465,63076,101197592,2114
101202465,63103,101202593,2115
101207465,63111,101207592,2113
101212465,63132,101212593,2128
101217465,63127,101217592,2147
101222465,63118,101222593,2141
101227465,63087,101227592,2112
101232465,63122,101232593,2109
101237465,63107,101237592,2119
101242465,62998,101242594,2075
101247465,63046,101247592,2039
101252465,62964,101252594,2004
101257465,62920,101257592,1984
101262465,62918,101262594,1936
101267465,62909,101267592,1902
101272465,62907,101272593,1872
101277465,62885,101277592,1857
101282465,62771,101282593,1821
101287465,62825,101287592,1795
101292465,62725,101292593,1792
101297465,62757,101297592,1791
101302465,62699,101302594,1760
101307465,62675,101307592,1746
101312465,62689,101312593,1760
101317465,62666,101317592,1768
101322465,62627,101322594,1760
101327465,62607,101327592,1750
101332465,62628,101332593,1753
101338465,62587,101338592,1783
101343465,62607,101343594,1762
101348465,62574,101348592,1760
101353465,62544,101353593,1777
101358465,62527,101358592,1796
101363465,62527,101363593,1771
101368465,62533,101368592,1759
101373465,62521,101373593,1776
101378465,62538,101378592,1804
101383465,62547,101383594,1803
101388465,62542,101388592,1792
101393465,62598,101393593,1791
101398465,62638,101398592,1803
101403465,62629,101403593,1794
101408465,62611,101408592,1782
101413465,62643,101413593,1808
101418465,62689,101418592,1817
101423465,62725,101423594,1803
101428465,62742,101428592,1787
101433465,62790,101433594,1795
101438465,62816,101438592,1810
101443465,62846,101443594,1803
101448465,62871,101448592,1791
101453465,62914,101453593,1795
101458465,62895,101458592,1797
101463465,62903,101463593,1798
101468465,62934,101468592,1783
101473465,62940,101473594,1808
101478465,62909,101478593,1808
101483465,62879,101483594,1802
101488465,62918,101488592,1801
101493465,62872,101493593,1807
101498465,62848,101498592,1802
101503465,62865,101503593,1805
101508465,62835,101508592,1778
101513465,62855,101513593,1799
101518465,62809,101518592,1817
101523465,62824,101523594,1791
101528465,62788,101528592,1787
101533465,62764,101533593,1801
101538465,62737,101538592,1813
101543465,62718,101543593,1792
101548465,62732,101548592,1790
101553465,62708,101553594,1798
101558465,62678,101558592,1822
101563465,62710,101563593,1808
101568465,62663,101568592,1795
101573465,62691,101573594,1809
101578465,62623,101578592,1820
101584465,62635,101584593,1811
101589465,62661,101589592,1808
101594465,62593,101594593,1823
101599465,62568,101599592,1826
101604465,62541,101604593,1811
101609465,62552,101609593,1814
101614465,62529,101614593,1829
101619465,62573,101619592,1839
101624465,62594,101624594,1829
101629465,62593,101629592,1824
101634465,62632,101634593,1831
101639465,62651,101639592,1839
101644465,62667,101644594,1832
101649465,62683,101649592,1813
101654465,62681,101654593,1831
101659465,62726,101659592,1830
101664465,62750,101664593,1827
101669465,62773,101669592,1821
101674465,62834,101674593,1844
101679465,62875,101679592,1856
101684465,62866,101684593,1831
101689465,62916,101689592,1826
101694465,62933,101694594,1844
101699465,62958,101699592,1856
101704465,62959,101704593,1840
101709465,62976,101709592,1837
101714465,63004,101714594,1863
101719465,62981,101719592,1873
101724465,62982,101724593,1856
101729465,63013,101729592,1840
