35886812,38247,35886922,1735
35892812,38249,35892920,1777
35897812,38240,35897922,1669
35902812,38221,35902919,1693
35907812,38255,35907922,1735
35912812,38229,35912920,1805
35917812,38239,35917922,1669
35922812,38222,35922920,1690
35927812,38244,35927922,1734
35932812,38249,35932920,1845
35937812,38299,35937922,1725
35942812,38309,35942920,1741
35947812,38332,35947922,1781
35952812,38341,35952919,1877
35957812,38362,35957922,1757
35962812,38388,35962919,1741
35967812,38407,35967922,1744
35972812,38460,35972919,1835
35977812,38467,35977921,1743
35982812,38512,35982920,1761
35987812,38541,35987922,1830
35992812,38564,35992920,1874
35997812,38608,35997922,1791
36002812,38631,36002920,1816
36007812,38674,36007922,1815
36012812,38719,36012919,1830
36017812,38753,36017922,1737
36022812,38777,36022920,1791
36027812,38849,36027922,1813
36032812,38897,36032920,1904
36037812,38897,36037922,1853
36042812,38943,36042919,1805
36047812,39001,36047922,1903
36052812,39019,36052920,1983
36057812,39085,36057922,1898
36062812,39158,36062920,1862
36067812,39166,36067921,1931
36072812,39195,36072919,1925
36077812,39228,36077922,1849
36082812,39235,36082920,1833
36087812,39281,36087922,1866
36092812,39330,36092920,1950
36097812,39341,36097922,1745
36102812,39401,36102919,1816
36107812,39425,36107922,1834
36112812,39469,36112920,1898
36117812,39487,36117922,1836
36122812,39507,36122919,1766
36127812,39554,36127922,1885
36132812,39576,36132920,1955
36137812,39637,36137922,1809
36142812,39655,36142919,1847
36147812,39698,36147922,1879
36152812,39680,36152920,1919
36157812,39782,36157922,1863
36162812,39794,36162920,1822
36167812,39828,36167921,1920
36172812,39828,36172920,2320
36177812,39868,36177922,2909
36182812,39905,36182920,4095
36187812,39961,36187922,4095
36192812,39967,36192919,4095
36197812,40007,36197922,4087
36202812,40024,36202920,2317
36207812,40040,36207922,1523
36212812,40089,36212920,1695
36217812,40097,36217921,1721
36222812,40126,36222920,1804
36227812,40153,36227922,1874
36232812,40229,36232919,1902
36237812,40215,36237922,1737
36242812,40247,36242919,1739
36247812,40248,36247922,1808
36252812,40300,36252920,1818
36257812,40299,36257922,1760
36262812,40333,36262920,1703
36267812,40331,36267921,1813
36272812,40350,36272920,1889
36277812,40393,36277922,1766
36282812,40409,36282920,1771
36287812,40438,36287922,1808
36292812,40439,36292919,1957
36297812,40443,36297921,1831
36302812,40477,36302919,1827
36307812,40478,36307921,1886
36312812,40512,36312920,1952
36317812,40489,36317921,1791
36322812,40554,36322919,1843
36327812,40584,36327921,1876
36332812,40620,36332920,1997
36337812,40579,36337922,1904
36342812,40600,36342920,1871
36347812,40667,36347922,1981
36352812,40671,36352920,2075
36357812,40681,36357922,1962
36362812,40736,36362920,1999
36367812,40705,36367921,2046
36372812,40723,36372920,2175
36377812,40757,36377922,2109
36382812,40785,36382920,2070
36387812,40789,36387922,2200
36392812,40794,36392920,2263
36397812,40840,36397922,2225
36402812,40839,36402920,2192
36407812,40828,36407922,2277
36412812,40781,36412919,2348
36417812,40762,36417922,2271
36422812,40696,36422920,2203
36427812,40593,36427922,2287
36432812,40506,36432920,2369
36437812,40391,36437922,2231
36442812,40239,36442919,2165
36447812,40065,36447922,2185
36452812,39884,36452919,2205
36457812,39688,36457922,2019
36462812,39516,36462920,1984
36467812,39248,36467922,1886
36472812,39072,36472920,1897
36477812,38854,36477922,1726
36482812,38669,36482920,1717
36487812,38481,36487922,1643
36492812,38300,36492919,1703
36497812,38099,36497922,1593
36502812,37944,36502920,1607
36507812,37854,36507922,1552
36512812,37741,36512920,1633
36517812,37625,36517922,1519
36522812,37524,36522919,1511
36527812,37499,36527922,1557
36532812,37460,36532920,1619
36537812,37380,36537921,1521
36542812,37355,36542919,1520
36547812,37346,36547922,1521
36552812,37328,36552920,1614
36557812,37296,36557922,1505
36562812,37297,36562920,1503
36567812,37330,36567922,1561
36572812,37321,36572920,1695
36577812,37349,36577922,1573
36582812,37345,36582920,1581
36587812,37384,36587922,1604
36592812,37421,36592920,1701
36597812,37445,36597922,1521
36602812,37468,36602920,1635
36607812,37515,36607922,1646
36612812,37547,36612920,1739
36617812,37563,36617922,1571
36622812,37606,36622920,1574
36627812,37661,36627922,1638
36632812,37676,36632920,1670
36638812,37720,36638922,1569
36643812,37763,36643920,1591
36648812,37787,36648922,1659
36653812,37840,36653920,1646
36658812,37889,36658922,1602
36663812,37948,36663920,1616
36668812,38013,36668922,1697
36673812,38041,36673920,1703
36678812,38077,36678922,1600
36683812,38103,36683920,1650
36688812,38161,36688922,1690
36693812,38185,36693919,1760
36698812,38227,36698921,1581
36703812,38225,36703919,1627
36708812,38266,36708922,1696
36713812,38298,36713920,1786
36718812,38267,36718922,1619
36723812,38306,36723920,1579
36728812,38325,36728922,1702
36733812,38325,36733920,1759
36738812,38340,36738922,1598
36743812,38323,36743920,1675
36748812,38353,36748922,1665
36753812,38339,36753920,1783
36758812,38311,36758922,1710
36763812,38310,36763920,1671
36768812,38299,36768922,1680
36773812,38325,36773920,1776
36778812,38314,36778922,1611
36783812,38316,36783920,1719
36788812,38301,36788922,1707
36793812,38233,36793919,1790
36798812,38276,36798922,1661
36803812,38274,36803919,1671
36808812,38319,36808922,1773
36813812,38309,36813919,1793
36818812,38277,36818922,1649
36823812,38272,36823920,1661
36828812,38285,36828922,1767
36833812,38288,36833919,1793
36838812,38332,36838922,1733
36843812,38322,36843920,1718
36848812,38354,36848922,1779
36853812,38361,36853919,1838
36858812,38378,36858922,1662
36863812,38381,36863920,1703
36868812,38427,36868922,1750
36873812,38431,36873919,1821
36878812,38477,36878922,1741
36883812,38512,36883920,1755
36888812,38514,36888922,1776
36893812,38589,36893919,1843
36898812,38604,36898922,1693
36903812,38639,36903920,1728
36908812,38694,36908922,1809
36913812,38728,36913919,1840
36918812,38815,36918922,1702
36923812,38858,36923920,1760
36928812,38862,36928922,1842
36933812,38942,36933920,1869
36938812,38952,36938922,1722
36943812,38988,36943920,1781
36948812,39033,36948922,1853
36953812,39112,36953920,1874
36958812,39142,36958922,1770
36963812,39174,36963920,1761
36968812,39233,36968922,1893
36973812,39265,36973920,1895
36978812,39300,36978922,1789
36983812,39333,36983920,1814
36988812,39403,36988922,1907
36993812,39420,36993920,2035
36998812,39447,36998922,1817
37003812,39530,37003920,1934
37008812,39531,37008922,1936
37013812,39580,37013919,1997
37018812,39617,37018922,1806
37023812,39625,37023920,1815
37028812,39668,37028922,1924
37033812,39744,37033920,1945
37038812,39769,37038921,1821
37043812,39795,37043920,1807
37048812,39782,37048922,1877
37053812,39870,37053919,1891
37058812,39872,37058922,1775
37063812,39903,37063920,1776
37068812,39885,37068922,1907
37073812,39941,37073920,1882
37078812,39978,37078922,1822
37083812,40029,37083919,1808
37088812,40026,37088921,1859
37093812,40031,37093920,1935
37098812,40028,37098922,1895
37103812,40046,37103920,1873
37108812,40091,37108922,1983
37113812,40133,37113920,2127
37118812,40142,37118922,2465
37123812,40171,37123920,3435
37128812,40208,37128922,4095
37133812,40240,37133920,4095
37138812,40249,37138922,4095
37143812,40270,37143920,3653
37148812,40288,37148922,2134
37153812,40319,37153920,1581
37158812,40376,37158922,1670
37163812,40335,37163920,1822
37168812,40361,37168922,1907
37173812,40378,37173919,1895
37178812,40383,37178922,1690
37183812,40371,37183920,1679
37188812,40398,37188922,1798
37193812,40450,37193920,1770
37198812,40495,37198922,1711
37203812,40466,37203919,1712
37208812,40456,37208922,1807
37213812,40467,37213920,1831
37218812,40483,37218922,1731
37223812,40470,37223919,1742
37228812,40512,37228922,1810
37233812,40526,37233919,1846
37238812,40548,37238921,1766
37243812,40570,37243919,1834
37248812,40570,37248922,1903
37253812,40629,37253920,1968
37258812,40615,37258922,1840
37263812,40627,37263920,1829
37268812,40670,37268922,1888
37273812,40684,37273920,1947
37278812,40673,37278922,1876
37283812,40711,37283920,1913
37288812,40737,37288922,2010
37293812,40742,37293919,2003
37298812,40780,37298922,1967
37303812,40769,37303920,2000
37308812,40819,37308922,2032
37313812,40859,37313920,2122
37318812,40868,37318922,2095
37323812,40903,37323919,2036
37328812,40893,37328922,2162
37333812,40933,37333920,2251
37338812,40941,37338922,2143
37343812,40956,37343920,2166
37349812,40932,37349922,2298
37354812,40907,37354919,2283
37359812,40915,37359922,2242
37364812,40841,37364920,2255
37369812,40794,37369922,2291
37374812,40662,37374920,2288
37379812,40597,37379922,2213
37384812,40469,37384920,2193
37389812,40318,37389922,2263
37394812,40158,37394919,2185
37399812,39978,37399922,2042
37404812,39783,37404919,2011
37409812,39593,37409922,1953
37414812,39382,37414919,1968
37419812,39187,37419922,1774
37424812,38991,37424919,1727
37429812,38802,37429922,1770
37434812,38620,37434920,1696
37439812,38462,37439922,1585
37444812,38306,37444920,1568
37449812,38130,37449922,1612
37454812,38023,37454919,1658
37459812,37917,37459922,1477
37464812,37838,37464920,1491
37469812,37762,37469922,1524
37474812,37691,37474919,1635
37479812,37702,37479922,1515
37484812,37637,37484919,1482
37489812,37661,37489921,1569
37494812,37561,37494920,1615
37499812,37574,37499922,1495
37504812,37605,37504920,1522
37509812,37634,37509922,1657
37514812,37632,37514920,1664
37519812,37656,37519922,1504
37524812,37658,37524920,1552
37529812,37736,37529922,1617
37534812,37742,37534919,1655
37539812,37781,37539922,1534
37544812,37822,37544920,1535
37549812,37842,37549922,1654
37554812,37893,37554919,1680
37559812,37944,37559922,1530
37564812,37987,37564920,1584
37569812,38022,37569922,1638
37574812,38090,37574920,1623
37579812,38115,37579922,1527
37584812,38227,37584920,1630
37589812,38288,37589922,1631
37594812,38325,37594919,1670
37599812,38359,37599922,1549
37604812,38437,37604919,1585
37609812,38499,37609922,1648
37614812,38540,37614920,1675
37619812,38600,37619922,1534
37624812,38653,37624920,1609
37629812,38727,37629922,1614
37634812,38806,37634920,1695
37639812,38822,37639922,1551
37644812,38846,37644920,1631
37649812,38895,37649922,1730
37654812,38929,37654919,1648
37659812,38961,37659922,1603
37664812,38982,37664920,1602
37669812,38983,37669922,1687
37674812,39020,37674920,1722
37679812,39034,37679922,1648
37684812,39032,37684920,1616
37689812,39040,37689922,1647
37694812,39021,37694920,1781
37699812,39016,37699922,1613
37704812,38997,37704920,1680
37709812,38987,37709922,1687
37714812,39022,37714919,1746
37719812,38953,37719921,1636
37724812,38966,37724920,1642
37729812,38949,37729922,1776
37734812,38922,37734920,1764
37739812,38895,37739922,1663
37744812,38898,37744920,1694
37749812,38890,37749922,1697
37754812,38899,37754919,1759
37759812,38874,37759922,1648
37764812,38865,37764920,1686
37769812,38871,37769922,1740
37774812,38860,37774920,1813
37779812,38870,37779922,1685
37784812,38838,37784920,1725
37789812,38846,37789922,1812
37794812,38876,37794920,1805
37799812,38920,37799922,1680
37804812,38883,37804920,1711
37809812,38842,37809922,1754
37814812,38929,37814920,1825
37819812,38896,37819922,1753
37824812,38917,37824920,1739
37829812,38964,37829922,1824
37834812,38982,37834920,1856
37839812,39004,37839922,1714
37844812,39064,37844920,1735
37849812,39037,37849922,1813
37854812,39117,37854920,1815
37859812,39128,37859922,1757
37864812,39178,37864919,1734
37869812,39192,37869922,1795
37874812,39236,37874920,1840
37879812,39270,37879922,1775
37884812,39284,37884919,1745
37889812,39323,37889922,1827
37894812,39327,37894919,1846
37899812,39405,37899922,1695
37904812,39377,37904920,1790
37909812,39420,37909922,1825
37914812,39434,37914920,1905
37919812,39532,37919922,1751
37924812,39542,37924919,1810
37929812,39532,37929922,1922
37934812,39569,37934919,2000
37939812,39606,37939922,1873
37944812,39589,37944919,1891
37949812,39643,37949922,1961
37954812,39680,37954920,1986
37959812,39689,37959922,1779
37964812,39743,37964920,1779
37969812,39784,37969922,1901
37974812,39793,37974920,1909
37979812,39813,37979922,1840
37984812,39835,37984919,1755
37989812,39893,37989922,1836
37994812,39906,37994919,1885
37999812,39937,37999922,1813
38004812,39954,38004920,1744
38009812,39968,38009922,1859
38014812,40001,38014920,1913
38019812,40030,38019922,1775
38024812,40061,38024919,1835
38029812,40087,38029922,1899
38034812,40083,38034919,1942
38039812,40113,38039922,1872
38044812,40171,38044919,1910
38049812,40147,38049922,2103
38054812,40188,38054919,2359
38059812,40184,38059922,2864
38064812,40209,38064920,4095
38069812,40226,38069922,4095
38075812,40251,38075919,4095
38080812,40251,38080922,4095
38085812,40268,38085920,2333
38090812,40287,38090922,1591
38095812,40294,38095920,1616
38100812,40308,38100922,1712
38105812,40327,38105920,1776
38110812,40350,38110921,1898
38115812,40371,38115920,1835
38120812,40359,38120922,1723
38125812,40387,38125919,1739
38130812,40406,38130922,1785
38135812,40400,38135920,1829
38140812,40401,38140921,1705
38145812,40414,38145919,1751
38150812,40428,38150922,1854
38155812,40416,38155920,1790
38160812,40427,38160921,1696
38165812,40467,38165920,1779
38170812,40492,38170922,1834
38175812,40478,38175920,1842
38180812,40516,38180922,1770
38185812,40531,38185919,1799
38190812,40527,38190922,1903
38195812,40566,38195920,1918
38200812,40569,38200922,1845
38205812,40582,38205919,1808
38210812,40606,38210922,1983
38215812,40673,38215919,1942
38220812,40656,38220922,1931
38225812,40693,38225920,1970
38230812,40723,38230922,2005
38235812,40704,38235920,2037
38240812,40770,38240922,2015
38245812,40817,38245920,2046
38250812,40827,38250922,2064
38255812,40870,38255920,2125
38260812,40875,38260921,2060
38265812,40927,38265920,2109
38270812,40955,38270921,2215
38275812,40956,38275919,2224
38280812,40991,38280922,2185
38285812,41006,38285920,2207
38290812,40989,38290922,2311
38295812,41013,38295920,2318
38300812,41017,38300922,2239
38305812,40984,38305919,2240
38310812,40954,38310922,2304
38315812,40890,38315920,2351
38320812,40823,38320922,2191
38325812,40716,38325920,2214
38330812,40625,38330922,2263
38335812,40478,38335920,2196
38340812,40361,38340922,2022
38345812,40235,38345920,1931
38350812,40076,38350922,2009
38355812,39914,38355919,1904
38360812,39740,38360922,1725
38365812,39586,38365919,1663
38370812,39410,38370922,1737
38375812,39273,38375920,1714
38380812,39102,38380921,1585
38385812,38976,38385920,1551
38390812,38833,38390922,1552
38395812,38757,38395920,1572
38400812,38621,38400922,1441
38405812,38546,38405920,1499
38410812,38472,38410922,1559
38415812,38405,38415920,1583
38420812,38348,38420922,1463
38425812,38306,38425920,1514
38430812,38262,38430922,1569
38435812,38240,38435919,1619
38440812,38244,38440922,1473
38445812,38210,38445919,1551
38450812,38226,38450922,1615
38455812,38230,38455920,1625
38460812,38240,38460922,1520
38465812,38284,38465919,1581
38470812,38313,38470921,1634
38475812,38335,38475919,1663
38480812,38376,38480922,1579
38485812,38441,38485919,1583
38490812,38456,38490922,1623
38495812,38510,38495920,1617
38500812,38526,38500921,1603
38505812,38583,38505919,1572
38510812,38627,38510922,1648
38515812,38704,38515920,1660
38520812,38689,38520922,1561
38525812,38774,38525920,1589
38530812,38825,38530922,1680
38535812,38900,38535920,1630
38540812,38974,38540922,1600
38545812,38950,38545920,1562
38550812,38977,38550922,1687
38555812,39034,38555920,1671
38560812,39097,38560922,1543
38565812,39157,38565919,1600
38570812,39213,38570922,1648
38575812,39236,38575920,1713
38580812,39286,38580922,1615
38585812,39331,38585919,1643
38590812,39317,38590922,1664
38595812,39377,38595920,1744
38600812,39371,38600922,1625
38605812,39400,38605920,1662
38610812,39403,38610921,1690
38615812,39397,38615920,1711
38620812,39365,38620922,1653
38625812,39377,38625920,1648
38630812,39353,38630922,1689
38635812,39387,38635920,1770
38640812,39325,38640921,1623
38645812,39302,38645920,1663
38650812,39274,38650922,1765
38655812,39274,38655920,1749
38660812,39253,38660922,1663
38665812,39209,38665920,1629
38670812,39160,38670922,1791
38675812,39136,38675920,1744
38680812,39087,38680922,1639
38685812,39089,38685920,1725
38690812,39080,38690922,1777
38695812,39089,38695919,1775
38700812,39072,38700921,1680
38705812,39028,38705920,1712
38710812,39037,38710922,1741
38715812,38998,38715920,1739
38720812,39028,38720922,1679
38725812,39023,38725920,1718
38730812,38987,38730922,1797
38735812,39020,38735920,1823
38740812,39013,38740922,1703
38745812,39015,38745920,1753
38750812,39022,38750922,1849
38755812,39065,38755920,1759
38760812,39086,38760922,1729
38765812,39095,38765919,1761
38770812,39103,38770922,1837
38775812,39130,38775920,1887
38780812,39144,38780922,1776
38785812,39187,38785920,1745
38790812,39171,38790922,1887
38795812,39199,38795920,1909
38800812,39260,38800922,1840
38805812,39264,38805920,1781
38811812,39288,38811921,1926
38816812,39319,38816920,1941
38821812,39347,38821922,1803
38826812,39356,38826919,1771
38831812,39406,38831922,1872
38836812,39393,38836920,1862
38841812,39430,38841922,1750
38846812,39461,38846920,1764
38851812,39516,38851922,1831
38856812,39504,38856920,1806
38861812,39565,38861922,1707
38866812,39581,38866920,1790
38871812,39601,38871922,1808
38876812,39610,38876919,1823
38881812,39647,38881922,1754
38886812,39644,38886920,1777
38891812,39696,38891922,1851
38896812,39734,38896920,1874
38901812,39781,38901922,1802
38906812,39805,38906920,1831
38911812,39829,38911922,2062
38916812,39884,38916919,2210
38921812,39885,38921921,2803
38926812,39943,38926920,4089
38931812,39972,38931922,4095
38936812,39990,38936920,4095
38941812,40010,38941921,4095
38946812,40093,38946919,2539
38951812,40099,38951922,1622
38956812,40106,38956919,1580
38961812,40131,38961922,1628
38966812,40140,38966920,1813
38971812,40236,38971922,1890
38976812,40261,38976919,1831
38981812,40273,38981922,1696
38986812,40330,38986919,1729
38991812,40352,38991922,1806
38996812,40347,38996919,1801
39001812,40373,39001922,1765
39006812,40395,39006920,1755
39011812,40413,39011922,1821
39016812,40461,39016920,1839
39021812,40520,39021922,1712
39026812,40506,39026919,1803
39031812,40500,39031922,1841
39036812,40531,39036919,1842
39041812,40543,39041922,1776
39046812,40558,39046920,1815
39051812,40599,39051922,1874
39056812,40606,39056919,1872
39061812,40631,39061922,1822
39066812,40677,39066919,1819
39071812,40695,39071922,1986
39076812,40727,39076919,1937
39081812,40745,39081922,1897
39086812,40759,39086920,1932
39091812,40783,39091922,1995
39096812,40839,39096920,2037
39101812,40861,39101922,1951
39106812,40875,39106920,1998
39111812,40903,39111922,2099
39116812,40976,39116919,2103
39121812,40972,39121922,2032
39126812,40988,39126920,2098
39131812,41032,39131922,2197
39136812,41063,39136919,2221
39141812,41046,39141922,2097
39146812,41094,39146919,2160
39151812,41086,39151922,2293
39156812,41082,39156919,2309
39161812,41065,39161922,2245
39166812,41038,39166919,2223
39171812,40993,39171922,2317
39176812,40940,39176920,2274
39181812,40840,39181922,2223
39186812,40710,39186920,2155
39191812,40583,39191922,2251
39196812,40505,39196920,2167
39201812,40380,39201921,2018
39206812,40188,39206919,1968
39211812,40059,39211921,1945
39216812,39889,39216920,1843
39221812,39734,39221922,1710
39226812,39553,39226919,1699
39231812,39373,39231922,1693
39236812,39198,39236920,1663
39241812,39010,39241921,1544
39246812,38920,39246919,1558
39251812,38759,39251922,1584
39256812,38633,39256919,1586
39261812,38513,39261922,1488
39266812,38469,39266920,1552
39271812,38393,39271922,1584
39276812,38310,39276920,1617
39281812,38239,39281922,1484
39286812,38175,39286920,1530
39291812,38115,39291922,1586
39296812,38109,39296920,1600
39301812,38097,39301922,1552
39306812,38116,39306920,1598
39311812,38082,39311922,1643
39316812,38137,39316920,1619
39321812,38132,39321922,1581
39326812,38147,39326920,1600
39331812,38173,39331922,1684
39336812,38210,39336919,1649
39341812,38211,39341922,1519
39346812,38275,39346920,1589
39351812,38330,39351922,1658
39356812,38360,39356920,1670
39361812,38383,39361922,1590
39366812,38449,39366920,1586
39371812,38483,39371922,1694
39376812,38541,39376920,1701
39381812,38542,39381922,1554
39386812,38586,39386920,1638
39391812,38630,39391922,1683
39396812,38716,39396919,1651
39401812,38771,39401922,1616
39406812,38832,39406919,1638
39411812,38856,39411922,1684
39416812,38925,39416920,1683
39421812,38917,39421921,1571
39426812,38965,39426919,1616
39431812,39066,39431922,1678
39436812,39067,39436920,1712
39441812,39089,39441922,1600
39446812,39123,39446920,1584
39451812,39158,39451922,1680
39456812,39192,39456919,1723
39461812,39215,39461922,1559
39466812,39232,39466920,1622
39471812,39238,39471922,1716
39476812,39229,39476919,1665
39481812,39199,39481921,1619
39486812,39246,39486920,1703
39491812,39220,39491922,1775
39496812,39218,39496919,1759
39501812,39200,39501922,1651
39506812,39176,39506919,1659
39511812,39172,39511922,1755
39516812,39133,39516920,1762
39521812,39128,39521921,1639
39526812,39098,39526920,1714
39531812,39077,39531922,1743
39536812,39063,39536919,1797
39541812,39040,39541922,1667
39546812,39027,39546920,1725
39551812,39025,39551922,1766
39556812,38997,39556920,1763
39562812,38986,39562922,1705
39567812,38984,39567920,1739
39572812,38951,39572922,1821
39577812,38945,39577920,1761
39582812,38948,39582922,1681
39587812,38982,39587920,1712
39592812,38949,39592922,1797
39597812,38948,39597919,1797
39602812,38964,39602922,1737
39607812,38946,39607920,1728
39612812,38967,39612922,1819
39617812,38936,39617920,1778
39622812,38968,39622922,1754
39627812,39012,39627920,1795
39632812,39032,39632921,1881
39637812,39023,39637920,1811
39642812,39060,39642922,1726
39647812,39058,39647919,1725
39652812,39118,39652922,1862
39657812,39142,39657920,1770
39662812,39183,39662922,1759
39667812,39201,39667919,1799
39672812,39207,39672922,1969
39677812,39257,39677920,1862
39682812,39284,39682922,1853
39687812,39303,39687919,1883
39692812,39362,39692922,1979
39697812,39405,39697920,1869
39702812,39438,39702922,1806
39707812,39445,39707919,1832
39712812,39494,39712922,1967
39717812,39506,39717920,1883
39722812,39583,39722922,1725
39727812,39643,39727920,1870
39732812,39627,39732922,1903
39737812,39729,39737919,1840
39742812,39745,39742922,1743
39747812,39800,39747920,1801
39752812,39820,39752922,1917
39757812,39846,39757920,1819
39762812,39882,39762921,1760
39767812,39878,39767920,1835
39772812,39936,39772922,1934
39777812,40000,39777919,1835
39782812,39991,39782922,1839
39787812,40043,39787920,1882
39792812,40061,39792921,2016
39797812,40117,39797920,2139
39802812,40172,39802922,2611
39807812,40199,39807919,3747
39812812,40209,39812922,4095
39817812,40256,39817919,4095
39822812,40311,39822922,4095
39827812,40325,39827919,2787
39832812,40385,39832922,1718
39837812,40419,39837919,1555
39842812,40464,39842922,1641
39847812,40501,39847919,1844
39852812,40558,39852922,1919
39857812,40586,39857920,1779
39862812,40617,39862922,1787
39867812,40653,39867919,1769
39872812,40648,39872921,1809
39877812,40693,39877920,1749
39882812,40719,39882922,1780
39887812,40736,39887920,1810
39892812,40775,39892922,1819
39897812,40800,39897920,1837
39902812,40822,39902922,1775
39907812,40844,39907920,1826
39912812,40851,39912922,1936
39917812,40894,39917920,1857
39922812,40918,39922922,1803
39927812,40950,39927920,1869
39932812,40931,39932922,1927
39937812,40981,39937920,1904
39942812,40980,39942922,1803
39947812,41025,39947920,1835
39952812,41022,39952921,1936
39957812,41095,39957919,1922
39962812,41108,39962922,1891
39967812,41107,39967920,1947
39972812,41108,39972922,2032
39977812,41120,39977920,2009
39982812,41141,39982921,2007
39987812,41191,39987920,1985
39992812,41181,39992922,2065
39997812,41190,39997919,2047
40002812,41200,40002922,2061
40007812,41269,40007919,2122
40012812,41242,40012922,2224
40017812,41296,40017919,2170
40022812,41321,40022922,2096
40027812,41288,40027920,2194
40032812,41270,40032922,2331
40037812,41248,40037919,2235
40042812,41201,40042922,2182
40047812,41166,40047920,2253
40052812,41080,40052922,2318
40057812,40945,40057920,2224
40062812,40840,40062922,2187
40067812,40727,40067920,2197
40072812,40578,40072922,2217
40077812,40429,40077920,2143
40082812,40250,40082922,2009
40087812,40060,40087919,1979
40092812,39894,40092922,2000
40097812,39697,40097920,1823
40102812,39498,40102922,1703
40107812,39286,40107920,1751
40112812,39149,40112921,1744
40117812,38909,40117919,1634
40122812,38806,40122922,1583
40127812,38622,40127919,1653
40132812,38514,40132921,1655
40137812,38388,40137919,1571
40142812,38271,40142922,1491
40147812,38242,40147920,1552
40152812,38138,40152922,1670
40157812,38089,40157920,1628
40162812,38030,40162922,1563
40167812,37962,40167919,1553
40172812,37956,40172921,1677
40177812,37964,40177919,1663
40182812,37937,40182922,1520
40187812,37895,40187919,1565
40192812,37915,40192922,1655
40197812,37946,40197919,1678
40202812,37945,40202922,1522
40207812,37963,40207919,1591
40212812,37983,40212922,1712
40217812,38034,40217920,1695
40222812,38006,40222922,1571
40227812,38097,40227919,1604
40232812,38113,40232922,1676
40237812,38131,40237920,1635
40242812,38162,40242922,1597
40247812,38208,40247919,1590
40252812,38244,40252922,1715
40257812,38299,40257919,1679
40262812,38362,40262922,1584
40267812,38403,40267920,1619
40272812,38441,40272921,1696
40277812,38488,40277920,1650
40282812,38502,40282922,1563
40287812,38550,40287919,1635
40292812,38611,40292922,1708
40298812,38661,40298919,1600
40303812,38672,40303922,1616
40308812,38735,40308920,1662
40313812,38788,40313922,1728
40318812,38818,40318919,1707
40323812,38820,40323922,1622
40328812,38863,40328920,1618
40333812,38872,40333921,1786
40338812,38895,40338920,1730
40343812,38906,40343922,1653
40348812,38904,40348920,1680
40353812,38934,40353922,1797
40358812,38945,40358920,1699
40363812,38906,40363922,1648
40368812,38922,40368919,1646
40373812,38906,40373922,1755
40378812,38880,40378920,1683
40383812,38876,40383922,1712
40388812,38899,40388920,1685
40393812,38861,40393922,1754
40398812,38803,40398920,1745
40403812,38814,40403922,1649
40408812,38833,40408919,1698
40413812,38778,40413922,1759
40418812,38778,40418920,1719
40423812,38743,40423922,1668
40428812,38737,40428919,1703
40433812,38728,40433922,1756
40438812,38762,40438919,1724
40443812,38727,40443922,1664
40448812,38701,40448920,1689
40453812,38682,40453922,1788
40458812,38730,40458920,1762
40463812,38748,40463922,1725
40468812,38776,40468920,1703
40473812,38791,40473922,1787
40478812,38815,40478920,1745
40483812,38838,40483921,1728
40488812,38816,40488920,1740
40493812,38841,40493922,1870
40498812,38867,40498920,1778
40503812,38894,40503922,1773
40508812,38911,40508920,1779
40513812,38970,40513922,1794
40518812,38958,40518919,1771
40523812,38988,40523922,1697
40528812,39022,40528920,1808
40533812,39066,40533922,1850
40538812,39086,40538920,1803
40543812,39093,40543922,1791
40548812,39172,40548920,1916
40553812,39169,40553922,1968
40558812,39177,40558920,1872
40563812,39223,40563922,1891
40568812,39319,40568920,1910
40573812,39382,40573922,1972
40578812,39362,40578920,1884
40583812,39416,40583922,1767
40588812,39447,40588920,1825
40593812,39484,40593922,1925
40598812,39573,40598919,1814
40603812,39636,40603922,1805
40608812,39646,40608920,1846
40613812,39703,40613922,1870
40618812,39742,40618920,1808
40623812,39781,40623922,1760
40628812,39808,40628920,1808
40633812,39862,40633922,1853
40638812,39897,40638920,1814
40643812,39940,40643922,1792
40648812,39985,40648920,1840
40653812,40022,40653922,1926
40658812,40079,40658919,1949
40663812,40089,40663922,1919
40668812,40101,40668919,1943
40673812,40134,40673922,2288
40678812,40167,40678919,2990
40683812,40198,40683922,4095
40688812,40219,40688920,4095
40693812,40252,40693922,4095
40698812,40303,40698920,3839
40703812,40346,40703922,2160
40708812,40359,40708920,1518
40713812,40349,40713922,1713
40718812,40462,40718920,1808
40723812,40477,40723922,1819
40728812,40472,40728920,1792
40733812,40474,40733922,1822
40738812,40465,40738920,1781
40743812,40511,40743922,1701
40748812,40524,40748919,1729
40753812,40583,40753922,1793
40758812,40605,40758920,1808
40763812,40562,40763922,1764
40768812,40610,40768919,1809
40773812,40579,40773922,1850
40778812,40636,40778920,1797
40783812,40650,40783922,1762
40788812,40642,40788919,1790
40793812,40640,40793922,1866
40798812,40678,40798920,1834
40803812,40659,40803922,1779
40808812,40696,40808920,1802
40813812,40727,40813922,1957
40818812,40729,40818920,1899
40823812,40732,40823922,1870
40828812,40757,40828919,1904
40833812,40757,40833922,2006
40838812,40793,40838920,1887
40843812,40829,40843922,1901
40848812,40831,40848920,1952
40853812,40833,40853922,2078
40858812,40876,40858920,2015
40863812,40905,40863922,1990
40868812,40902,40868920,2043
40873812,40930,40873921,2128
40878812,40947,40878919,2127
40883812,40973,40883922,2102
40888812,40968,40888920,2135
40893812,40957,40893922,2253
40898812,40963,40898920,2224
40903812,40970,40903922,2146
40908812,40927,40908919,2206
40913812,40900,40913922,2355
40918812,40848,40918920,2285
40923812,40749,40923922,2211
40928812,40658,40928920,2211
40933812,40570,40933922,2286
40938812,40414,40938920,2254
40943812,40297,40943921,2122
40948812,40157,40948920,2135
40953812,39966,40953922,2155
40958812,39780,40958920,2035
40963812,39616,40963922,1914
40968812,39407,40968920,1867
40973812,39189,40973922,1883
40978812,39000,40978920,1811
40983812,38825,40983922,1671
40988812,38668,40988919,1638
40993812,38497,40993922,1691
40998812,38340,40998919,1601
41003812,38203,41003922,1555
41008812,38091,41008920,1568
41013812,38006,41013922,1649
41018812,37911,41018920,1554
41023812,37831,41023922,1517
41028812,37778,41028920,1579
41033812,37710,41033922,1637
41038812,37676,41038920,1584
41043812,37639,41043922,1485
41048812,37616,41048920,1606
41053812,37592,41053922,1696
41058812,37568,41058919,1650
41063812,37593,41063921,1585
41069812,37600,41069920,1667
41074812,37604,41074922,1690
41079812,37639,41079919,1615
41084812,37630,41084922,1590
41089812,37618,41089920,1643
41094812,37690,41094922,1701
41099812,37724,41099920,1653
41104812,37739,41104922,1587
41109812,37782,41109919,1626
41114812,37805,41114922,1753
41119812,37833,41119920,1609
41124812,37917,41124922,1625
41129812,37937,41129920,1673
41134812,37978,41134922,1710
41139812,38010,41139920,1600
41144812,38049,41144922,1607
41149812,38127,41149920,1622
41154812,38179,41154922,1743
41159812,38184,41159920,1598
41164812,38257,41164922,1549
41169812,38297,41169920,1680
41174812,38333,41174922,1727
41179812,38386,41179920,1653
41184812,38439,41184922,1605
41189812,38480,41189920,1654
41194812,38514,41194922,1719
41199812,38520,41199919,1648
41204812,38560,41204922,1615
41209812,38607,41209919,1684
41214812,38640,41214922,1758
41219812,38609,41219920,1637
41224812,38634,41224922,1647
41229812,38639,41229920,1683
41234812,38682,41234922,1729
41239812,38674,41239919,1655
41244812,38705,41244922,1680
41249812,38695,41249920,1761
41254812,38684,41254922,1763
41259812,38650,41259919,1699
41264812,38642,41264922,1655
41269812,38631,41269920,1718
41274812,38632,41274922,1776
41279812,38584,41279920,1683
41284812,38569,41284922,1666
41289812,38564,41289920,1692
41294812,38563,41294922,1758
41299812,38519,41299920,1712
41304812,38538,41304922,1728
41309812,38541,41309920,1725
41314812,38518,41314921,1753
41319812,38567,41319920,1758
41324812,38513,41324922,1738
41329812,38510,41329920,1803
41334812,38533,41334922,1840
41339812,38553,41339920,1728
41344812,38574,41344922,1683
41349812,38569,41349920,1745
41354812,38583,41354922,1865
41359812,38598,41359920,1746
41364812,38627,41364921,1737
41369812,38658,41369919,1762
41374812,38672,41374922,1897
41379812,38765,41379920,1804
41384812,38782,41384922,1758
41389812,38781,41389920,1766
41394812,38824,41394922,1875
41399812,38858,41399920,1744
41404812,38887,41404922,1712
41409812,38928,41409920,1801
41414812,38959,41414922,1819
41419812,38995,41419920,1840
41424812,39016,41424922,1799
41429812,39035,41429920,1883
41434812,39079,41434922,1999
41439812,39124,41439919,1893
41444812,39156,41444922,1840
41449812,39224,41449920,1878
41454812,39231,41454922,1946
41459812,39267,41459919,1854
41464812,39300,41464922,1875
41469812,39345,41469920,1811
41474812,39367,41474922,1966
41479812,39418,41479919,1806
41484812,39444,41484922,1809
41489812,39510,41489920,1802
41494812,39517,41494922,1921
41499812,39540,41499920,1791
41504812,39604,41504922,1829
41509812,39605,41509919,1789
41514812,39633,41514922,1872
41519812,39700,41519920,1840
41524812,39692,41524922,1751
41529812,39727,41529919,1849
41534812,39769,41534922,1995
41539812,39819,41539920,1850
41544812,39828,41544922,1844
41549812,39839,41549919,1921
41554812,39831,41554922,2256
41559812,39878,41559920,2762
41564812,39877,41564922,3921
41569812,39929,41569919,4095
41574812,39951,41574922,4095
41579812,40012,41579920,4095
41584812,40011,41584922,2884
41589812,40027,41589920,1741
41594812,40064,41594922,1565
41599812,40097,41599920,1701
41604812,40113,41604922,1796
41609812,40124,41609919,1828
41614812,40146,41614922,1903
41619812,40190,41619920,1734
41624812,40166,41624922,1707
41629812,40192,41629919,1744
41634812,40191,41634922,1851
41639812,40264,41639920,1746
41644812,40229,41644922,1706
41649812,40235,41649920,1797
41654812,40274,41654922,1844
41659812,40264,41659920,1744
41664812,40286,41664922,1732
41669812,40300,41669920,1805
41674812,40281,41674922,1835
41679812,40317,41679919,1815
41684812,40295,41684922,1765
41689812,40319,41689920,1812
41694812,40362,41694922,1914
41699812,40351,41699920,1865
41704812,40376,41704922,1894
41709812,40362,41709919,1907
41714812,40383,41714922,1984
41719812,40393,41719919,1931
41724812,40443,41724921,1893
41729812,40455,41729919,1989
41734812,40451,41734921,2047
41739812,40450,41739920,1994
41744812,40429,41744922,1916
41749812,40498,41749919,2054
41754812,40510,41754922,2128
41759812,40528,41759919,2085
41764812,40541,41764922,2065
41769812,40548,41769920,2178
41774812,40580,41774922,2245
41779812,40590,41779919,2180
41784812,40620,41784922,2179
41789812,40610,41789919,2256
41794812,40592,41794922,2329
41799812,40536,41799920,2235
41804812,40480,41804922,2214
41809812,40433,41809920,2219
41814812,40330,41814922,2330
41820812,40248,41820920,2195
41825812,40114,41825922,2153
41830812,39946,41830920,2158
41835812,39787,41835922,2157
41840812,39621,41840920,2047
41845812,39458,41845922,1957
41850812,39267,41850920,1861
41855812,39115,41855922,1917
41860812,38898,41860919,1694
41865812,38715,41865922,1664
41870812,38549,41870920,1643
41875812,38380,41875922,1669
41880812,38206,41880920,1615
41885812,38086,41885922,1558
41890812,37966,41890919,1523
41895812,37859,41895922,1583
41900812,37775,41900920,1566
41905812,37688,41905922,1518
41910812,37587,41910920,1585
41915812,37583,41915922,1617
41920812,37543,41920920,1475
41925812,37495,41925922,1535
41930812,37454,41930920,1617
41935812,37475,41935922,1648
41940812,37440,41940919,1585
41945812,37454,41945922,1535
41950812,37467,41950920,1616
41955812,37516,41955922,1658
41960812,37540,41960920,1557
41965812,37544,41965922,1577
41970812,37569,41970919,1610
41975812,37645,41975921,1673
41980812,37629,41980920,1611
41985812,37738,41985922,1507
41990812,37772,41990920,1627
41995812,37813,41995922,1635
42000812,37866,42000920,1571
42005812,37869,42005922,1561
42010812,37931,42010920,1623
42015812,37987,42015922,1724
42020812,38049,42020920,1625
42025812,38113,42025922,1595
42030812,38178,42030920,1645
42035812,38232,42035922,1689
42040812,38285,42040919,1598
42045812,38330,42045922,1557
42050812,38396,42050920,1642
42055812,38463,42055922,1712
42060812,38503,42060920,1588
42065812,38557,42065922,1559
42070812,38606,42070920,1595
42075812,38628,42075922,1733
42080812,38666,42080919,1600
42085812,38753,42085922,1633
42090812,38736,42090919,1669
42095812,38721,42095922,1693
42100812,38755,42100920,1615
42105812,38782,42105922,1629
42110812,38810,42110920,1661
42115812,38824,42115922,1734
42120812,38803,42120920,1651
42125812,38826,42125921,1611
42130812,38783,42130919,1643
42135812,38813,42135922,1769
42140812,38774,42140919,1641
42145812,38792,42145922,1609
42150812,38778,42150919,1682
42155812,38741,42155922,1795
42160812,38752,42160920,1697
42165812,38717,42165922,1639
42170812,38708,42170920,1681
42175812,38675,42175922,1742
42180812,38656,42180920,1712
42185812,38670,42185922,1658
42190812,38644,42190920,1744
42195812,38652,42195922,1764
42200812,38635,42200920,1730
42205812,38635,42205922,1714
42210812,38645,42210920,1742
42215812,38639,42215922,1756
42220812,38634,42220920,1744
42225812,38674,42225922,1744
42230812,38659,42230920,1727
42235812,38667,42235922,1794
42240812,38683,42240920,1750
42245812,38703,42245922,1685
42250812,38707,42250919,1789
42255812,38762,42255922,1829
42260812,38749,42260920,1694
42265812,38751,42265922,1723
42270812,38785,42270919,1772
42275812,38775,42275922,1831
42280812,38864,42280920,1776
42285812,38841,42285922,1725
42290812,38869,42290920,1756
42295812,38862,42295922,1919
42300812,38888,42300920,1803
42305812,38962,42305922,1781
42310812,38985,42310920,1884
42315812,39000,42315922,1966
42320812,39054,42320920,1870
42325812,39097,42325922,1825
42330812,39125,42330919,1874
42335812,39125,42335922,1920
42340812,39181,42340920,1780
42345812,39200,42345922,1795
42350812,39247,42350919,1829
42355812,39297,42355922,1887
42360812,39323,42360920,1778
42365812,39313,42365922,1756
42370812,39351,42370920,1865
42375812,39385,42375921,1904
42380812,39447,42380920,1786
42385812,39438,42385921,1759
42390812,39498,42390920,1829
42395812,39502,42395922,1847
42400812,39498,42400919,1776
42405812,39544,42405922,1745
42410812,39574,42410920,1888
42415812,39601,42415922,1994
42420812,39636,42420920,1927
42425812,39624,42425922,2031
42430812,39633,42430920,2341
42435812,39649,42435922,3071
42440812,39685,42440920,4095
42445812,39706,42445922,4095
42450812,39735,42450920,4095
42455812,39759,42455922,4007
42460812,39787,42460920,2234
42465812,39815,42465922,1424
42470812,39821,42470920,1562
42475812,39853,42475922,1832
42480812,39874,42480920,1796
42485812,39901,42485922,1727
42490812,39887,42490919,1743
42495812,39941,42495922,1808
42500812,39929,42500920,1750
42505812,39923,42505922,1744
42510812,39951,42510920,1734
42515812,39963,42515922,1839
42520812,39988,42520920,1697
42525812,40008,42525922,1679
42530812,39997,42530920,1792
42535812,40015,42535922,1903
42540812,40026,42540920,1799
42545812,40047,42545922,1738
42550812,40062,42550920,1803
42555812,40060,42555922,1905
42560812,40056,42560919,1822
42565812,40095,42565922,1773
42570812,40072,42570920,1858
42575812,40109,42575922,1948
42580812,40104,42580920,1829
42586812,40122,42586922,1887
42591812,40146,42591920,1957
42596812,40158,42596922,2033
42601812,40157,42601919,1922
42606812,40163,42606922,1939
42611812,40177,42611919,2020
42616812,40200,42616922,2098
42621812,40204,42621920,1986
42626812,40258,42626922,2019
42631812,40256,42631920,2080
42636812,40274,42636921,2195
42641812,40255,42641920,2089
42646812,40282,42646922,2097
42651812,40274,42651920,2241
42656812,40286,42656922,2303
42661812,40301,42661919,2177
42666812,40332,42666921,2192
42671812,40341,42671919,2274
42676812,40305,42676922,2350
42681812,40247,42681920,2192
42686812,40208,42686922,2191
42691812,40138,42691920,2235
42696812,40048,42696922,2301
42701812,39975,42701920,2175
42706812,39851,42706922,2067
42711812,39710,42711920,2078
42716812,39558,42716922,2073
42721812,39402,42721919,1893
42726812,39269,42726922,1818
42731812,39112,42731920,1836
42736812,38946,42736922,1801
42741812,38771,42741920,1659
42746812,38619,42746922,1585
42751812,38488,42751919,1626
42756812,38374,42756921,1648
42761812,38237,42761920,1489
42766812,38111,42766921,1449
42771812,38016,42771920,1575
42776812,37901,42776922,1620
42781812,37852,42781919,1463
42786812,37804,42786922,1523
42791812,37748,42791920,1594
42796812,37715,42796922,1614
42801812,37644,42801919,1514
42806812,37634,42806922,1482
42811812,37605,42811920,1561
42816812,37632,42816922,1620
42821812,37614,42821919,1512
42826812,37618,42826922,1495
42831812,37636,42831920,1620
42836812,37687,42836922,1691
42841812,37706,42841920,1578
42846812,37752,42846922,1548
42851812,37816,42851920,1658
42856812,37851,42856922,1650
42861812,37885,42861919,1646
42866812,37936,42866922,1535
42871812,38008,42871920,1687
42876812,38074,42876922,1712
42881812,38129,42881920,1566
42886812,38222,42886922,1602
42891812,38224,42891920,1620
42896812,38299,42896922,1683
42901812,38363,42901920,1579
42906812,38419,42906922,1590
42911812,38468,42911920,1604
42916812,38540,42916922,1713
42921812,38597,42921920,1607
42926812,38655,42926922,1583
42931812,38709,42931919,1665
42936812,38741,42936921,1680
42941812,38799,42941919,1598
42946812,38841,42946922,1556
42951812,38870,42951920,1645
42956812,38878,42956922,1747
42961812,38941,42961919,1627
42966812,38979,42966922,1629
42971812,38977,42971919,1679
42976812,38987,42976922,1655
42981812,39010,42981919,1626
42986812,38985,42986922,1674
42991812,39016,42991920,1691
42996812,38982,42996922,1729
43001812,38983,43001920,1643
43006812,38971,43006922,1631
43011812,38945,43011920,1710
43016812,38923,43016922,1715
43021812,38891,43021920,1659
43026812,38866,43026922,1628
43031812,38842,43031920,1671
43036812,38806,43036922,1735
43041812,38887,43041920,1671
43046812,38804,43046922,1693
43051812,38741,43051920,1757
43056812,38717,43056922,1771
43061812,38690,43061920,1714
43066812,38709,43066922,1660
43071812,38707,43071919,1717
43076812,38693,43076922,1786
43081812,38715,43081920,1678
43086812,38690,43086922,1628
43091812,38718,43091919,1714
43096812,38716,43096922,1814
43101812,38727,43101920,1714
43106812,38718,43106922,1694
43111812,38749,43111919,1756
43116812,38750,43116922,1839
43121812,38774,43121920,1759
43126812,38763,43126922,1706
43131812,38808,43131920,1764
43136812,38811,43136922,1817
43141812,38855,43141920,1740
43146812,38844,43146922,1705
43151812,38851,43151920,1780
43156812,38880,43156921,1807
43161812,38936,43161919,1749
43166812,38955,43166922,1750
43171812,38954,43171920,1833
43176812,38976,43176922,1940
43181812,38991,43181919,1840
43186812,38993,43186922,1858
43191812,39022,43191920,1846
43196812,39069,43196922,1937
43201812,39074,43201920,1825
43206812,39122,43206922,1836
43211812,39147,43211920,1786
43216812,39163,43216922,1903
43221812,39205,43221920,1808
43226812,39233,43226922,1769
43231812,39259,43231920,1850
43236812,39305,43236922,1897
43241812,39345,43241920,1779
43246812,39351,43246922,1809
43251812,39381,43251920,1797
43256812,39405,43256921,1857
43261812,39431,43261920,1791
43266812,39478,43266922,1793
43271812,39472,43271920,1869
43276812,39495,43276922,1867
43281812,39519,43281919,1872
43286812,39565,43286922,1837
43291812,39582,43291919,1955
43296812,39629,43296921,2026
43301812,39634,43301919,2295
43306812,39665,43306922,3137
43311812,39679,43311920,4095
43316812,39709,43316922,4095
43321812,39719,43321920,4095
43327812,39748,43327922,3519
43332812,39767,43332920,2008
43337812,39787,43337922,1591
43342812,39787,43342920,1582
43347812,39823,43347921,1799
43352812,39829,43352920,1915
43357812,39847,43357922,1902
43362812,39862,43362920,1730
43367812,39870,43367922,1739
43372812,39906,43372920,1742
43377812,39918,43377921,1775
43382812,39946,43382919,1683
43387812,39951,43387922,1726
43392812,39948,43392919,1795
43397812,39961,43397922,1885
43402812,39976,43402920,1735
43407812,39984,43407922,1794
43412812,40019,43412920,1822
43417812,40009,43417922,1861
43422812,39996,43422919,1813
43427812,40037,43427922,1811
43432812,40055,43432919,1866
43437812,40073,43437922,1943
43442812,40053,43442919,1835
43447812,40104,43447921,1895
43452812,40106,43452920,1952
43457812,40132,43457921,1982
43462812,40122,43462920,1907
43467812,40172,43467922,1917
43472812,40181,43472920,1953
43477812,40199,43477921,2007
43482812,40248,43482919,1965
43487812,40229,43487922,1956
43492812,40281,43492920,2013
43497812,40325,43497922,2126
43502812,40314,43502920,2069
43507812,40344,43507922,2019
43512812,40370,43512920,2174
43517812,40387,43517922,2175
43522812,40402,43522919,2157
43527812,40428,43527922,2194
43532812,40409,43532920,2276
43537812,40396,43537922,2259
43542812,40370,43542920,2243
43547812,40314,43547922,2189
43552812,40278,43552920,2267
43557812,40163,43557922,2282
43562812,40090,43562919,2207
43567812,40001,43567922,2151
43572812,39864,43572919,2191
43577812,39718,43577921,2216
43582812,39526,43582920,2007
43587812,39383,43587922,2000
43592812,39221,43592919,1917
43597812,39040,43597922,1943
43602812,38806,43602919,1799
43607812,38663,43607922,1712
43612812,38479,43612920,1751
43617812,38350,43617922,1747
43622812,38223,43622920,1647
43627812,38101,43627922,1581
43632812,37953,43632920,1669
43637812,37824,43637921,1662
43642812,37774,43642920,1498
43647812,37687,43647922,1487
43652812,37564,43652919,1583
43657812,37558,43657922,1630
43662812,37527,43662920,1499
43667812,37468,43667921,1482
43672812,37449,43672920,1602
43677812,37454,43677922,1683
43682812,37454,43682920,1528
43687812,37455,43687922,1581
43692812,37430,43692920,1648
43697812,37442,43697922,1616
43702812,37465,43702920,1603
43707812,37497,43707922,1589
43712812,37506,43712920,1616
43717812,37584,43717922,1709
43722812,37597,43722920,1579
43727812,37646,43727922,1613
43732812,37627,43732919,1658
43737812,37667,43737922,1701
43742812,37733,43742920,1639
43747812,37765,43747922,1616
43752812,37762,43752920,1630
43757812,37841,43757922,1766
43762812,37902,43762920,1617
43767812,37986,43767922,1605
43772812,38014,43772919,1683
43777812,38059,43777922,1741
43782812,38116,43782920,1629
43787812,38174,43787922,1633
43792812,38220,43792920,1659
43797812,38253,43797922,1734
43802812,38294,43802920,1584
43807812,38309,43807922,1637
43812812,38324,43812920,1687
43817812,38402,43817922,1771
43822812,38464,43822920,1648
43827812,38465,43827922,1611
43832812,38508,43832920,1687
43837812,38524,43837922,1770
43842812,38541,43842920,1679
43847812,38560,43847921,1675
43852812,38581,43852919,1705
43857812,38555,43857922,1751
43862812,38589,43862920,1643
43867812,38559,43867922,1643
43872812,38574,43872920,1727
43877812,38534,43877922,1718
43882812,38513,43882920,1667
43887812,38506,43887922,1699
43892812,38513,43892920,1733
43897812,38446,43897922,1727
43902812,38433,43902919,1728
43907812,38385,43907921,1646
43912812,38376,43912919,1765
43917812,38393,43917922,1802
43922812,38323,43922920,1751
43927812,38342,43927922,1650
43932812,38311,43932920,1751
43937812,38262,43937922,1776
43942812,38255,43942920,1693
43947812,38267,43947922,1691
43952812,38272,43952920,1760
43957812,38309,43957922,1807
43962812,38288,43962919,1723
43967812,38285,43967922,1703
43972812,38291,43972920,1791
43977812,38298,43977922,1847
43982812,38321,43982920,1690
43987812,38304,43987921,1699
43992812,38351,43992920,1797
43997812,38382,43997922,1819
44002812,38369,44002920,1703
44007812,38378,44007922,1696
44012812,38433,44012920,1834
44017812,38455,44017922,1871
44022812,38460,44022920,1747
44027812,38515,44027922,1767
44032812,38513,44032919,1806
44037812,38546,44037922,1861
44042812,38568,44042920,1710
44047812,38607,44047922,1745
44052812,38587,44052920,1807
44057812,38640,44057922,1831
44063812,38679,44063920,1761
44068812,38723,44068922,1783
44073812,38747,44073920,1821
44078812,38770,44078922,1872
44083812,38770,44083920,1803
44088812,38808,44088922,1829
44093812,38825,44093920,1791
44098812,38860,44098921,1838
44103812,38902,44103920,1781
44108812,38952,44108922,1717
44113812,38948,44113920,1826
44118812,38973,44118922,1827
44123812,39000,44123919,1766
44128812,39048,44128922,1798
44133812,39074,44133919,1863
44138812,39083,44138922,1870
44143812,39120,44143920,1791
44148812,39155,44148922,1875
44153812,39217,44153920,1925
44158812,39197,44158922,1936
44163812,39226,44163920,1878
44168812,39277,44168922,1870
44173812,39282,44173919,1936
44178812,39367,44178922,1947
44183812,39341,44183920,1872
44188812,39385,44188922,1837
44193812,39401,44193920,1904
44198812,39438,44198922,1895
44203812,39490,44203920,1854
44208812,39495,44208922,1811
44213812,39510,44213920,1888
44218812,39575,44218922,1919
44223812,39556,44223920,1773
44228812,39627,44228922,1811
44233812,39670,44233920,1872
44238812,39693,44238922,1938
44243812,39709,44243920,1819
44248812,39724,44248922,1853
44253812,39732,44253920,1917
44258812,39760,44258922,1889
44263812,39825,44263920,1827
44268812,39798,44268922,1873
44273812,39833,44273919,1911
44278812,39844,44278922,2043
44283812,39841,44283920,2416
44288812,39889,44288922,3283
44293812,39903,44293920,4095
44298812,39931,44298922,4095
44303812,39930,44303920,4095
44308812,39952,44308922,3511
44313812,40001,44313920,2031
44318812,40023,44318922,1601
44323812,40013,44323919,1633
44328812,40104,44328922,1829
44333812,40095,44333919,1904
44338812,40088,44338922,1951
44343812,40111,44343919,1717
44348812,40149,44348922,1709
44353812,40224,44353920,1818
44358812,40237,44358922,1860
44363812,40249,44363920,1726
44368812,40274,44368922,1791
44373812,40300,44373920,1783
44378812,40330,44378922,1835
44383812,40341,44383920,1747
44388812,40396,44388922,1742
44393812,40404,44393920,1871
44398812,40397,44398922,1863
44403812,40433,44403920,1835
44408812,40479,44408922,1825
44413812,40487,44413920,1890
44418812,40498,44418922,1925
44423812,40528,44423920,1847
44428812,40564,44428922,1800
44433812,40591,44433920,1959
44438812,40582,44438922,1953
44443812,40635,44443920,1898
44448812,40643,44448922,1901
44453812,40661,44453920,1947
44458812,40650,44458922,2011
44463812,40738,44463920,1963
44468812,40747,44468922,1987
44473812,40778,44473920,2090
44478812,40791,44478922,2142
44483812,40830,44483920,2047
44488812,40858,44488922,2065
44493812,40861,44493920,2154
44498812,40912,44498922,2220
44503812,40889,44503920,2132
44508812,40878,44508922,2142
44513812,40870,44513920,2249
44518812,40816,44518922,2288
44523812,40809,44523920,2162
44528812,40723,44528922,2192
44533812,40581,44533920,2289
44538812,40437,44538922,2349
44543812,40346,44543920,2197
44548812,40156,44548922,2166
44553812,40010,44553919,2195
44558812,39830,44558921,2207
44563812,39643,44563920,2035
44568812,39414,44568922,2027
44573812,39199,44573920,1981
44578812,39023,44578922,1991
44583812,38812,44583920,1806
44588812,38607,44588922,1743
44593812,38407,44593920,1744
44598812,38275,44598922,1717
44603812,38101,44603919,1648
44608812,37923,44608922,1590
44613812,37833,44613920,1663
44618812,37704,44618922,1590
44623812,37623,44623920,1546
44628812,37521,44628922,1520
44633812,37415,44633920,1611
44638812,37382,44638922,1669
44643812,37361,44643919,1533
44648812,37309,44648922,1587
44653812,37294,44653920,1631
44658812,37270,44658922,1697
44663812,37229,44663919,1562
44668812,37223,44668922,1552
44673812,37231,44673920,1563
44678812,37274,44678922,1680
44683812,37269,44683920,1599
44688812,37279,44688922,1573
44693812,37336,44693920,1635
44698812,37323,44698922,1700
44703812,37372,44703920,1587
44708812,37406,44708922,1546
44713812,37404,44713919,1671
44718812,37451,44718922,1733
44723812,37513,44723920,1609
44728812,37500,44728922,1642
44733812,37572,44733919,1637
44738812,37587,44738922,1735
44743812,37617,44743920,1632
44748812,37660,44748922,1626
44753812,37694,44753920,1712
44758812,37720,44758922,1699
44763812,37802,44763919,1613
44768812,37818,44768922,1651
44773812,37869,44773920,1712
44778812,37921,44778922,1738
44783812,37982,44783920,1600
44788812,38011,44788922,1648
44793812,38043,44793919,1675
44798812,38083,44798922,1712
44804812,38065,44804920,1634
44809812,38096,44809922,1639
44814812,38092,44814919,1765
44819812,38153,44819922,1706
44824812,38110,44824920,1664
44829812,38142,44829922,1600
44834812,38160,44834919,1703
44839812,38154,44839922,1773
44844812,38135,44844920,1602
44849812,38134,44849922,1651
44854812,38115,44854920,1723
44859812,38101,44859922,1719
44864812,38059,44864919,1675
44869812,38073,44869922,1706
44874812,38037,44874920,1735
44879812,38057,44879922,1747
44884812,37996,44884920,1659
44889812,37986,44889922,1648
44894812,37979,44894920,1744
44899812,37961,44899922,1744
44904812,37959,44904919,1712
44909812,37912,44909922,1703
44914812,37946,44914919,1747
44919812,37923,44919922,1786
44924812,37915,44924920,1675
44929812,37926,44929922,1761
44934812,37917,44934920,1738
44939812,37903,44939922,1785
44944812,37957,44944920,1729
44949812,37965,44949922,1701
44954812,37954,44954920,1797
44959812,37986,44959922,1790
44964812,37974,44964920,1712
44969812,38038,44969922,1744
44974812,38077,44974919,1815
44979812,38071,44979922,1831
44984812,38112,44984920,1711
44989812,38144,44989922,1784
44994812,38186,44994920,1831
44999812,38209,44999922,1842
45004812,38234,45004920,1738
45009812,38287,45009922,1779
45014812,38285,45014920,1834
45019812,38312,45019922,1873
45024812,38364,45024920,1762
45029812,38380,45029922,1808
45034812,38422,45034920,1859
45039812,38498,45039922,1865
45044812,38517,45044920,1749
45049812,38530,45049922,1821
45054812,38584,45054919,1845
45059812,38617,45059922,1915
45064812,38647,45064920,1771
45069812,38686,45069922,1792
45074812,38773,45074919,1841
45079812,38804,45079922,1860
45084812,38817,45084920,1798
45089812,38870,45089922,1795
45094812,38901,45094920,1843
45099812,38978,45099922,1804
45104812,39003,45104920,1765
45109812,39038,45109922,1838
45114812,39086,45114919,1857
45119812,39142,45119922,1860
45124812,39153,45124920,1744
45129812,39211,45129922,1842
45134812,39251,45134920,1856
45139812,39300,45139921,1903
45144812,39343,45144920,1872
45149812,39366,45149922,1872
45154812,39386,45154920,1961
45159812,39410,45159922,1997
45164812,39459,45164920,1837
45169812,39469,45169922,1840
45174812,39507,45174920,2005
45179812,39542,45179922,1930
45184812,39572,45184919,1884
45189812,39583,45189922,1857
45194812,39612,45194920,1925
45199812,39627,45199921,1897
45204812,39699,45204920,1824
45209812,39741,45209922,1901
45214812,39756,45214919,1918
45219812,39735,45219922,1890
45224812,39782,45224920,1793
45229812,39787,45229922,1838
45234812,39804,45234920,1906
45239812,39867,45239922,1927
45244812,39853,45244920,1806
45249812,39876,45249922,1809
45254812,39858,45254920,1921
45259812,39903,45259922,1925
45264812,39900,45264920,1879
45269812,39911,45269922,1883
45274812,39993,45274920,1983
45279812,39933,45279922,2177
45284812,39951,45284920,2575
45289812,39937,45289922,3623
45294812,39981,45294920,4095
45299812,39975,45299922,4095
45304812,40030,45304919,4095
45309812,40030,45309922,3698
45314812,40069,45314919,2175
45319812,40062,45319922,1665
45324812,40080,45324919,1600
45329812,40136,45329922,1781
45334812,40133,45334919,1927
45339812,40137,45339922,1922
45344812,40190,45344920,1746
45349812,40193,45349921,1684
45354812,40249,45354920,1819
45359812,40208,45359922,1827
45364812,40292,45364920,1712
45369812,40255,45369922,1734
45374812,40289,45374920,1843
45379812,40293,45379922,1769
45384812,40320,45384920,1699
45389812,40336,45389922,1779
45394812,40355,45394919,1845
45399812,40364,45399922,1818
45404812,40367,45404920,1753
45409812,40392,45409922,1792
45414812,40360,45414920,1849
45419812,40392,45419922,1936
45424812,40422,45424920,1791
45429812,40467,45429922,1803
45434812,40460,45434920,1961
45439812,40490,45439922,1941
45444812,40522,45444920,1835
45449812,40516,45449922,1913
45454812,40557,45454920,1990
45459812,40561,45459922,1995
45464812,40604,45464920,1936
45469812,40610,45469922,1955
45474812,40643,45474920,2047
45479812,40674,45479922,2090
45484812,40695,45484920,2047
45489812,40685,45489922,2029
45494812,40731,45494920,2139
45499812,40744,45499922,2177
45504812,40776,45504920,2114
45509812,40790,45509922,2128
45514812,40790,45514919,2279
45519812,40732,45519922,2288
45524812,40704,45524920,2159
45529812,40634,45529922,2222
45534812,40567,45534920,2288
45539812,40491,45539922,2303
45544812,40354,45544919,2176
45550812,40213,45550922,2215
45555812,40048,45555919,2237
45560812,39874,45560922,2182
45565812,39664,45565920,2014
45570812,39468,45570922,2017
45575812,39289,45575920,2047
45580812,39082,45580922,1921
45585812,38850,45585920,1714
45590812,38643,45590922,1666
45595812,38446,45595920,1707
45600812,38276,45600922,1695
45605812,38115,45605920,1573
45610812,37948,45610922,1584
45615812,37832,45615920,1616
45620812,37699,45620922,1584
45625812,37602,45625919,1465
45630812,37528,45630922,1551
45635812,37447,45635919,1555
45640812,37399,45640922,1557
45645812,37330,45645920,1462
45650812,37307,45650922,1495
45655812,37280,45655920,1581
45660812,37234,45660922,1645
45665812,37254,45665920,1521
45670812,37276,45670922,1511
45675812,37279,45675920,1655
45680812,37323,45680922,1584
45685812,37285,45685920,1567
45690812,37344,45690922,1533
45695812,37396,45695919,1680
45700812,37402,45700922,1637
45705812,37426,45705919,1570
45710812,37464,45710922,1595
45715812,37524,45715920,1633
45720812,37596,45720921,1627
45725812,37648,45725919,1535
45730812,37672,45730922,1553
45735812,37733,45735920,1641
45740812,37731,45740922,1644
45745812,37799,45745920,1582
45750812,37829,45750922,1599
45755812,37909,45755919,1717
45760812,37932,45760922,1610
45765812,38007,45765920,1575
45770812,38048,45770922,1581
45775812,38086,45775919,1683
45780812,38123,45780922,1696
45785812,38184,45785919,1599
45790812,38256,45790922,1581
45795812,38285,45795920,1673
45800812,38340,45800922,1676
45805812,38353,45805920,1623
45810812,38402,45810922,1575
45815812,38418,45815919,1744
45820812,38485,45820922,1686
45825812,38462,45825919,1611
45830812,38486,45830922,1671
45835812,38488,45835920,1680
45840812,38526,45840922,1696
45845812,38529,45845920,1605
45850812,38546,45850922,1601
45855812,38560,45855919,1750
45860812,38511,45860922,1676
45865812,38505,45865920,1632
45870812,38499,45870922,1619
45875812,38523,45875920,1773
45880812,38495,45880922,1696
45885812,38458,45885919,1616
45890812,38476,45890922,1650
45895812,38451,45895920,1751
45900812,38415,45900922,1771
45905812,38439,45905919,1662
45910812,38403,45910922,1663
45915812,38414,45915920,1728
45920812,38392,45920922,1741
45925812,38397,45925920,1629
45930812,38373,45930922,1662
45935812,38414,45935920,1726
45940812,38412,45940922,1793
45945812,38407,45945920,1654
45950812,38392,45950922,1757
45955812,38409,45955919,1778
45960812,38441,45960922,1751
45965812,38458,45965920,1714
45970812,38467,45970922,1712
45975812,38471,45975920,1724
45980812,38499,45980922,1754
45985812,38518,45985920,1696
45990812,38552,45990922,1671
45995812,38534,45995920,1834
46000812,38520,46000922,1835
46005812,38635,46005920,1714
46010812,38673,46010922,1749
46015812,38721,46015919,1855
46020812,38704,46020922,1819
46025812,38728,46025920,1701
46030812,38748,46030922,1749
46035812,38791,46035920,1824
46040812,38803,46040922,1826
46045812,38859,46045920,1671
46050812,38871,46050921,1748
46055812,38912,46055919,1827
46060812,38955,46060922,1847
46065812,38994,46065919,1787
46070812,39010,46070922,1746
46075812,39055,46075920,1818
46080812,39056,46080922,1834
46085812,39132,46085920,1794
46090812,39163,46090922,1791
46095812,39181,46095920,1929
46100812,39219,46100922,1839
46105812,39244,46105919,1751
46110812,39291,46110922,1808
46115812,39306,46115920,1855
46120812,39332,46120922,1866
46125812,39330,46125920,1758
46130812,39387,46130922,1836
46135812,39417,46135919,1939
46140812,39448,46140922,1914
46145812,39492,46145920,1853
46150812,39508,46150922,1886
46155812,39476,46155920,1961
46160812,39508,46160922,1931
46165812,39530,46165920,1843
46170812,39576,46170922,1830
46175812,39591,46175920,1910
46180812,39624,46180922,1904
46185812,39623,46185919,1817
46190812,39683,46190922,1847
46195812,39703,46195919,1901
46200812,39709,46200922,1898
46205812,39715,46205920,1808
46210812,39750,46210921,1783
46215812,39755,46215920,1927
46220812,39787,46220922,1843
46225812,39791,46225920,1754
46230812,39826,46230922,1808
46235812,39830,46235920,1876
46240812,39841,46240922,1902
46245812,39903,46245920,1858
46250812,39889,46250922,1860
46255812,39874,46255920,1985
46260812,39902,46260922,2032
46265812,39931,46265920,2161
46270812,39952,46270922,2737
46275812,39979,46275920,4069
46280812,39986,46280922,4095
46285812,40006,46285920,4095
46290812,39972,46290922,4095
46295812,40008,46295920,3042
46301812,40029,46301922,1653
46306812,40023,46306919,1499
46311812,40050,46311922,1757
46316812,40045,46316920,1903
46321812,40072,46321922,1851
46326812,40058,46326920,1801
46331812,40073,46331922,1779
46336812,40093,46336920,1805
46341812,40073,46341922,1795
46346812,40108,46346920,1689
46351812,40128,46351922,1707
46356812,40134,46356920,1835
46361812,40118,46361922,1809
46366812,40155,46366920,1742
46371812,40181,46371922,1808
46376812,40177,46376920,1931
46381812,40203,46381922,1837
46386812,40187,46386919,1758
46391812,40253,46391922,1781
46396812,40270,46396920,1905
46401812,40295,46401922,1904
46406812,40291,46406920,1827
46411812,40307,46411922,1931
46416812,40363,46416919,1950
46421812,40384,46421922,1930
46426812,40393,46426920,1885
46431812,40440,46431922,1961
46436812,40479,46436919,2033
46441812,40500,46441922,1987
46446812,40515,46446919,1942
46451812,40524,46451922,1971
46456812,40527,46456920,2086
46461812,40610,46461922,2084
46466812,40688,46466920,2047
46471812,40656,46471922,2123
46476812,40715,46476920,2177
46481812,40745,46481922,2160
46486812,40741,46486920,2102
46491812,40793,46491922,2186
46496812,40814,46496920,2278
46501812,40833,46501922,2282
46506812,40818,46506920,2203
46511812,40841,46511922,2279
46516812,40823,46516919,2335
46521812,40764,46521922,2283
46526812,40736,46526920,2204
46531812,40618,46531922,2251
46536812,40550,46536919,2253
46541812,40445,46541922,2242
46546812,40323,46546920,2144
46551812,40210,46551922,2123
46556812,40102,46556920,2078
46561812,39899,46561922,1984
46566812,39719,46566920,1831
46571812,39549,46571922,1794
46576812,39362,46576920,1786
46581812,39256,46581922,1709
46586812,39099,46586920,1570
46591812,38917,46591922,1655
46596812,38780,46596920,1587
46601812,38646,46601922,1586
46606812,38540,46606920,1469
46611812,38434,46611922,1498
46616812,38336,46616919,1575
46621812,38278,46621922,1579
46626812,38223,46626920,1489
46631812,38143,46631922,1460
46636812,38118,46636920,1602
46641812,38073,46641922,1616
46646812,38071,46646919,1552
46651812,38082,46651921,1535
46656812,38082,46656920,1599
46661812,38064,46661922,1562
46666812,38133,46666919,1530
46671812,38099,46671922,1558
46676812,38128,46676920,1674
46681812,38154,46681922,1616
46686812,38203,46686920,1533
46691812,38218,46691922,1604
46696812,38264,46696920,1717
46701812,38320,46701922,1657
46706812,38356,46706920,1554
46711812,38401,46711922,1619
46716812,38423,46716920,1713
46721812,38480,46721922,1679
46726812,38562,46726920,1584
46731812,38614,46731922,1617
46736812,38648,46736920,1729
46741812,38679,46741922,1651
46746812,38755,46746920,1588
46751812,38791,46751922,1589
46756812,38866,46756920,1723
46761812,38943,46761922,1621
46766812,38981,46766919,1587
46771812,38994,46771922,1546
46776812,39041,46776920,1722
46781812,39038,46781922,1691
46786812,39087,46786920,1581
46791812,39159,46791922,1582
46796812,39182,46796919,1718
46801812,39247,46801922,1690
46806812,39265,46806920,1569
46811812,39284,46811922,1609
46816812,39279,46816920,1751
46821812,39291,46821922,1664
46826812,39309,46826920,1591
46831812,39349,46831922,1599
46836812,39317,46836919,1721
46841812,39294,46841922,1651
46846812,39302,46846919,1607
46851812,39248,46851921,1622
46856812,39250,46856920,1709
46861812,39230,46861922,1681
46866812,39260,46866920,1632
46871812,39186,46871922,1633
46876812,39170,46876920,1790
46881812,39148,46881922,1735
46886812,39153,46886919,1651
46891812,39150,46891922,1683
46896812,39174,46896920,1785
46901812,39097,46901922,1727
46906812,39066,46906919,1690
46911812,39056,46911922,1712
46916812,39016,46916920,1774
46921812,39063,46921922,1712
46926812,39027,46926920,1679
46931812,39061,46931922,1687
46936812,39015,46936920,1812
46941812,39020,46941922,1808
46946812,39023,46946919,1669
46951812,39041,46951922,1712
46956812,39066,46956920,1811
46961812,39058,46961922,1756
46966812,39087,46966920,1717
46971812,39106,46971922,1749
46976812,39146,46976920,1808
46981812,39118,46981922,1799
46986812,39167,46986920,1739
46991812,39190,46991922,1735
46996812,39205,46996920,1782
47001812,39246,47001922,1815
47006812,39248,47006919,1755
47011812,39291,47011922,1749
47016812,39330,47016920,1856
47021812,39367,47021922,1857
47026812,39374,47026920,1777
47031812,39380,47031922,1751
47036812,39461,47036920,1808
47041812,39464,47041922,1813
47046812,39478,47046919,1680
47051812,39504,47051922,1778
47057812,39532,47057920,1855
47062812,39581,47062922,1824
47067812,39605,47067920,1781
47072812,39634,47072922,1807
47077812,39645,47077920,1926
47082812,39690,47082922,1817
47087812,39718,47087919,1789
47092812,39748,47092922,1851
47097812,39778,47097920,1937
47102812,39808,47102922,1936
47107812,39814,47107920,1854
47112812,39849,47112922,1883
47117812,39892,47117920,2010
47122812,39925,47122922,1901
47127812,39928,47127919,1835
47132812,39925,47132921,1897
47137812,39970,47137920,1936
47142812,40020,47142922,1864
47147812,40041,47147920,1790
47152812,40081,47152922,1819
47157812,40068,47157920,1936
47162812,40091,47162922,1841
47167812,40133,47167920,1824
47172812,40153,47172922,1846
47177812,40166,47177920,1923
47182812,40233,47182922,1840
47187812,40253,47187920,1809
47192812,40289,47192922,1871
47197812,40250,47197920,1907
47202812,40320,47202922,1889
47207812,40353,47207920,1890
47212812,40359,47212922,1919
47217812,40376,47217920,1981
47222812,40437,47222922,2240
47227812,40431,47227920,2943
47232812,40482,47232922,4095
47237812,40527,47237920,4095
47242812,40544,47242922,4095
47247812,40580,47247920,4095
47252812,40571,47252921,2589
47257812,40621,47257919,1680
47262812,40606,47262922,1621
47267812,40656,47267919,1712
47272812,40669,47272922,1903
47277812,40671,47277919,1858
47282812,40701,47282922,1794
47287812,40732,47287920,1712
47292812,40731,47292922,1744
47297812,40763,47297920,1868
47302812,40790,47302922,1808
47307812,40814,47307920,1774
47312812,40816,47312922,1712
47317812,40843,47317920,1791
47322812,40857,47322921,1773
47327812,40870,47327920,1776
47332812,40910,47332922,1764
47337812,40935,47337919,1886
47342812,40992,47342922,1851
47347812,40993,47347920,1836
47352812,41015,47352922,1793
47357812,41054,47357920,1888
47362812,41100,47362922,1878
47367812,41110,47367919,1869
47372812,41161,47372921,1812
47377812,41186,47377920,1967
47382812,41212,47382921,1901
47387812,41225,47387920,1925
47392812,41253,47392922,1914
47397812,41261,47397920,2018
47402812,41317,47402922,1986
47407812,41321,47407920,1901
47412812,41353,47412922,2021
47417812,41381,47417920,2096
47422812,41426,47422922,2101
47427812,41435,47427920,2055
47432812,41489,47432922,2130
47437812,41518,47437919,2222
47442812,41510,47442922,2236
47447812,41553,47447920,2160
47452812,41571,47452922,2192
47457812,41586,47457919,2288
47462812,41581,47462921,2281
47467812,41552,47467919,2192
47472812,41494,47472922,2229
47477812,41454,47477919,2332
47482812,41377,47482922,2281
47487812,41272,47487920,2202
47492812,41150,47492922,2179
47497812,41033,47497920,2170
47502812,40856,47502922,2145
47507812,40690,47507920,1973
47512812,40509,47512921,1994
47517812,40344,47517920,1999
47522812,40106,47522922,1821
47527812,39929,47527920,1712
47532812,39747,47532922,1670
47537812,39558,47537920,1744
47542812,39399,47542922,1599
47547812,39244,47547919,1588
47552812,39064,47552922,1574
47557812,38891,47557920,1650
47562812,38763,47562922,1599
47567812,38639,47567919,1460
47572812,38570,47572922,1583
47577812,38491,47577920,1634
47582812,38398,47582922,1530
47587812,38380,47587920,1494
47592812,38352,47592922,1525
47597812,38259,47597920,1646
47602812,38256,47602922,1581
47607812,38274,47607919,1457
47612812,38299,47612922,1508
47617812,38258,47617919,1646
47622812,38295,47622922,1603
47627812,38285,47627920,1571
47632812,38309,47632922,1584
47637812,38316,47637920,1697
47642812,38342,47642922,1584
47647812,38406,47647919,1552
47652812,38438,47652922,1559
47657812,38427,47657920,1708
47662812,38453,47662922,1641
47667812,38501,47667920,1533
47672812,38528,47672922,1631
47677812,38580,47677920,1681
47682812,38613,47682922,1625
47687812,38650,47687920,1641
47692812,38737,47692922,1614
47697812,38730,47697920,1744
47702812,38785,47702922,1603
47707812,38815,47707919,1552
47712812,38850,47712922,1655
47717812,38928,47717920,1712
47722812,38974,47722922,1616
47727812,39008,47727920,1582
47732812,39057,47732922,1642
47737812,39100,47737920,1760
47742812,39152,47742922,1589
47747812,39157,47747920,1567
47752812,39200,47752922,1622
47757812,39222,47757920,1712
47762812,39242,47762922,1738
47767812,39220,47767920,1609
47772812,39268,47772922,1611
47777812,39284,47777920,1709
47782812,39294,47782922,1666
47787812,39279,47787920,1600
47792812,39292,47792922,1654
47797812,39324,47797920,1733
47802812,39282,47802922,1693
47807812,39288,47807920,1629
47812812,39271,47812922,1677
47817812,39253,47817920,1727
47822812,39221,47822922,1734
47827812,39216,47827920,1625
47832812,39211,47832922,1710
47837812,39179,47837920,1749
47843812,39185,47843922,1686
47848812,39146,47848920,1628
47853812,39141,47853922,1691
47858812,39113,47858920,1776
47863812,39080,47863922,1679
47868812,39057,47868920,1671
47873812,39066,47873922,1745
47878812,39052,47878919,1758
47883812,39050,47883922,1687
47888812,39072,47888920,1665
47893812,39028,47893922,1742
47898812,39025,47898920,1797
47903812,39028,47903922,1712
47908812,39043,47908920,1710
47913812,39069,47913922,1744
47918812,39073,47918920,1829
47923812,39101,47923922,1729
47928812,39097,47928920,1744
47933812,39121,47933921,1727
47938812,39145,47938920,1871
47943812,39146,47943922,1776
47948812,39179,47948920,1689
47953812,39221,47953922,1741
47958812,39259,47958920,1861
47963812,39280,47963922,1773
47968812,39295,47968920,1742
47973812,39350,47973922,1830
47978812,39349,47978920,1835
47983812,39443,47983922,1780
47988812,39471,47988920,1741
47993812,39502,47993922,1761
47998812,39534,47998920,1879
48003812,39572,48003922,1840
48008812,39579,48008919,1761
48013812,39670,48013922,1774
48018812,39691,48018920,1830
48023812,39731,48023922,1791
48028812,39781,48028920,1721
48033812,39795,48033922,1794
48038812,39839,48038920,1851
48043812,39855,48043922,1853
48048812,39925,48048920,1832
48053812,39942,48053921,1840
48058812,39965,48058920,1990
48063812,40030,48063922,1907
48068812,40067,48068920,1900
48073812,40082,48073922,1843
48078812,40141,48078920,1993
48083812,40165,48083922,1885
48088812,40171,48088920,1822
48093812,40245,48093922,1823
48098812,40301,48098920,1935
48103812,40315,48103922,1835
48108812,40343,48108919,1836
48113812,40351,48113922,1822
48118812,40458,48118920,1873
48123812,40478,48123922,1860
48128812,40521,48128920,1766
48133812,40537,48133922,1819
48138812,40582,48138920,1959
48143812,40597,48143922,1863
48148812,40659,48148919,1798
48153812,40691,48153922,1837
48158812,40699,48158920,1874
48163812,40742,48163921,1904
48168812,40785,48168919,1866
48173812,40809,48173922,1916
48178812,40842,48178919,1999
48183812,40875,48183922,2130
48188812,40878,48188920,2794
48193812,40878,48193922,4065
48198812,40940,48198920,4095
48203812,40959,48203922,4095
48208812,41006,48208920,4095
48213812,41038,48213922,2555
48218812,41053,48218920,1706
48223812,41085,48223922,1595
48228812,41084,48228920,1692
48233812,41111,48233922,1893
48238812,41134,48238920,1885
48243812,41156,48243922,1847
48248812,41195,48248920,1698
48253812,41223,48253921,1780
48258812,41241,48258920,1861
48263812,41263,48263922,1809
48268812,41296,48268920,1744
48273812,41313,48273922,1725
48278812,41339,48278919,1904
48283812,41322,48283922,1783
48288812,41382,48288920,1810
48293812,41389,48293922,1830
48298812,41395,48298920,1907
48303812,41419,48303922,1847
48308812,41425,48308920,1835
48313812,41441,48313922,1853
48318812,41468,48318920,1877
48323812,41480,48323922,1857
48328812,41550,48328920,1822
48333812,41499,48333922,1904
48338812,41529,48338920,2007
48343812,41523,48343922,1963
48348812,41551,48348920,1846
48353812,41619,48353922,1958
48358812,41604,48358920,2064
48363812,41629,48363922,1980
48368812,41674,48368920,1979
48373812,41683,48373922,2015
48378812,41736,48378919,2105
48383812,41762,48383922,2096
48388812,41787,48388920,2033
48393812,41832,48393922,2080
48398812,41856,48398919,2155
48403812,41898,48403922,2180
48408812,41927,48408920,2161
48413812,41914,48413922,2193
48418812,41929,48418920,2287
48423812,41924,48423922,2233
48428812,41858,48428920,2198
48433812,41810,48433922,2183
48438812,41724,48438920,2278
48443812,41647,48443922,2204
48448812,41547,48448920,2143
48453812,41437,48453922,2182
48458812,41282,48458920,2215
48463812,41084,48463922,2131
48468812,40877,48468919,2041
48473812,40702,48473922,1986
48478812,40528,48478920,1983
48483812,40311,48483922,1888
48488812,40118,48488920,1713
48493812,39939,48493922,1729
48498812,39757,48498920,1773
48503812,39611,48503922,1635
48508812,39406,48508920,1584
48513812,39280,48513922,1535
48518812,39140,48518919,1691
48523812,39014,48523922,1574
48528812,38933,48528920,1493
48533812,38842,48533922,1525
48538812,38750,48538919,1665
48543812,38678,48543922,1587
48548812,38622,48548919,1532
48553812,38580,48553921,1550
48558812,38580,48558920,1594
48563812,38574,48563922,1570
48568812,38543,48568919,1567
48573812,38534,48573922,1549
48578812,38553,48578920,1667
48583812,38538,48583922,1616
48588812,38578,48588920,1527
48593812,38561,48593922,1578
48598812,38626,48598920,1685
48603812,38630,48603922,1621
48609812,38655,48609920,1607
48614812,38683,48614922,1616
48619812,38715,48619919,1685
48624812,38742,48624922,1621
48629812,38786,48629920,1611
48634812,38832,48634922,1600
48639812,38872,48639919,1664
48644812,38939,48644922,1617
48649812,38974,48649920,1590
48654812,38987,48654921,1619
48659812,39042,48659919,1718
48664812,39074,48664922,1602
48669812,39124,48669919,1585
48674812,39169,48674922,1648
48679812,39205,48679920,1696
48684812,39250,48684922,1639
48689812,39331,48689920,1581
48694812,39356,48694922,1621
48699812,39408,48699919,1683
48704812,39450,48704922,1631
48709812,39481,48709919,1635
48714812,39540,48714921,1649
48719812,39537,48719920,1747
48724812,39579,48724922,1664
48729812,39601,48729919,1579
48734812,39613,48734922,1679
48739812,39646,48739920,1728
48744812,39634,48744922,1668
48749812,39650,48749920,1645
48754812,39692,48754922,1703
48759812,39666,48759920,1753
48764812,39693,48764922,1683
48769812,39663,48769919,1647
48774812,39662,48774922,1691
48779812,39680,48779919,1733
48784812,39660,48784922,1625
48789812,39669,48789920,1664
48794812,39676,48794922,1744
48799812,39634,48799920,1789
48804812,39659,48804922,1693
48809812,39641,48809919,1698
48814812,39611,48814922,1710
48819812,39620,48819920,1824
48824812,39627,48824922,1695
48829812,39622,48829920,1655
48834812,39603,48834922,1680
48839812,39622,48839920,1808
48844812,39617,48844922,1687
48849812,39632,48849920,1744
48854812,39648,48854922,1761
48859812,39665,48859919,1801
48864812,39648,48864922,1742
48869812,39681,48869920,1775
48874812,39709,48874921,1793
48879812,39775,48879920,1872
48884812,39760,48884922,1714
48889812,39773,48889920,1727
48894812,39797,48894922,1743
48899812,39834,48899920,1833
48904812,39897,48904922,1835
48909812,39920,48909920,1744
48914812,39968,48914922,1761
48919812,40010,48919919,1883
48924812,40031,48924922,1761
48929812,40079,48929919,1734
48934812,40088,48934922,1742
48939812,40148,48939920,1849
48944812,40177,48944922,1819
48949812,40221,48949920,1735
48954812,40277,48954922,1811
48959812,40275,48959920,1901
48964812,40300,48964922,1787
48969812,40394,48969920,1753
48974812,40397,48974922,1798
48979812,40452,48979920,1901
48984812,40495,48984921,1822
48989812,40542,48989920,1778
48994812,40543,48994922,1886
48999812,40593,48999920,1955
49004812,40620,49004922,1885
49009812,40683,49009920,1885
49014812,40710,49014922,1919
49019812,40742,49019920,1969
49024812,40770,49024922,1887
49029812,40838,49029920,1830
49034812,40818,49034922,1899
49039812,40846,49039920,1942
49044812,40885,49044922,1835
49049812,40970,49049920,1786
49054812,40993,49054922,1865
49059812,41013,49059920,1870
49064812,41054,49064922,1823
49069812,41058,49069919,1807
49074812,41108,49074922,1819
49079812,41129,49079920,1927
49084812,41139,49084922,1841
49089812,41196,49089920,1840
49094812,41180,49094922,1802
49099812,41196,49099919,1929
49104812,41268,49104922,1851
49109812,41299,49109920,1937
49114812,41309,49114922,1873
49119812,41329,49119920,2075
49124812,41396,49124922,2355
49129812,41405,49129920,3085
49134812,41381,49134922,4095
49139812,41459,49139920,4095
49144812,41454,49144922,4095
49149812,41500,49149920,4095
49154812,41524,49154922,2349
49159812,41530,49159920,1595
49164812,41544,49164922,1615
49169812,41594,49169920,1768
49174812,41616,49174922,1826
49179812,41591,49179920,1919
49184812,41636,49184922,1842
49189812,41631,49189919,1727
49194812,41675,49194922,1773
49199812,41700,49199920,1817
49204812,41661,49204922,1712
49209812,41694,49209920,1771
49214812,41692,49214922,1787
49219812,41711,49219920,1844
49224812,41721,49224922,1798
49229812,41765,49229920,1762
49234812,41774,49234922,1776
49239812,41798,49239920,1875
49244812,41789,49244922,1830
49249812,41828,49249919,1808
49254812,41864,49254922,1820
49259812,41885,49259920,1916
49264812,41882,49264922,1877
49269812,41893,49269920,1850
49274812,41902,49274922,1840
49279812,41923,49279920,2014
49284812,41936,49284922,1886
49289812,41944,49289920,1871
49294812,41977,49294922,1922
49299812,41983,49299920,2002
49304812,42013,49304922,1920
49309812,42035,49309920,1915
49314812,42084,49314922,2043
49319812,42087,49319919,2099
49324812,42115,49324922,2064
49329812,42121,49329920,2015
49334812,42146,49334922,2109
49339812,42166,49339920,2241
49344812,42206,49344922,2134
49350812,42196,49350920,2165
49355812,42215,49355922,2217
49360812,42223,49360919,2317
49365812,42224,49365922,2230
49370812,42198,49370920,2197
49375812,42167,49375922,2270
49380812,42101,49380920,2319
49385812,42023,49385922,2198
49390812,41886,49390920,2160
49395812,41795,49395921,2224
49400812,41653,49400920,2224
49405812,41518,49405922,2116
49410812,41322,49410920,2011
49415812,41183,49415922,1966
49420812,40984,49420919,1949
49425812,40843,49425922,1776
49430812,40659,49430920,1754
49435812,40464,49435922,1741
49440812,40294,49440920,1741
49445812,40118,49445922,1649
49450812,40012,49450920,1621
49455812,39871,49455922,1599
49460812,39731,49460920,1650
49465812,39641,49465922,1472
49470812,39526,49470919,1519
49475812,39437,49475921,1535
49480812,39376,49480920,1595
49485812,39350,49485922,1522
49490812,39255,49490920,1487
49495812,39225,49495922,1525
49500812,39198,49500919,1642
49505812,39175,49505922,1563
49510812,39189,49510920,1488
49515812,39229,49515922,1611
49520812,39205,49520919,1668
49525812,39233,49525922,1519
49530812,39234,49530920,1530
49535812,39267,49535922,1581
49540812,39289,49540919,1701
49545812,39334,49545922,1552
49550812,39340,49550920,1583
49555812,39424,49555922,1595
49560812,39448,49560920,1682
49565812,39503,49565922,1594
49570812,39524,49570920,1597
49575812,39571,49575922,1637
49580812,39619,49580920,1727
49585812,39668,49585922,1600
49590812,39776,49590920,1530
49595812,39786,49595922,1626
49600812,39866,49600919,1681
49605812,39931,49605922,1569
49610812,40000,49610919,1655
49615812,40066,49615922,1600
49620812,40119,49620920,1691
49625812,40185,49625922,1616
49630812,40207,49630920,1583
49635812,40239,49635922,1647
49640812,40345,49640919,1665
49645812,40398,49645922,1647
49650812,40457,49650920,1567
49655812,40501,49655922,1713
49660812,40506,49660920,1751
49665812,40548,49665922,1702
49670812,40556,49670920,1600
49675812,40587,49675922,1663
49680812,40614,49680920,1779
49685812,40609,49685922,1650
49690812,40655,49690919,1648
49695812,40650,49695922,1674
49700812,40632,49700920,1807
49705812,40663,49705922,1685
49710812,40660,49710919,1658
49715812,40639,49715922,1712
49720812,40639,49720920,1781
49725812,40611,49725922,1703
49730812,40611,49730920,1665
49735812,40593,49735922,1702
49740812,40588,49740920,1760
49745812,40531,49745922,1691
49750812,40531,49750920,1685
49755812,40559,49755922,1762
49760812,40561,49760919,1789
49765812,40511,49765922,1749
49770812,40513,49770919,1675
49775812,40533,49775922,1757
49780812,40520,49780919,1854
49785812,40495,49785922,1685
49790812,40514,49790920,1675
49795812,40492,49795922,1747
49800812,40501,49800919,1799
49805812,40486,49805922,1704
49810812,40532,49810919,1723
49815812,40569,49815922,1746
49820812,40553,49820920,1843
49825812,40571,49825922,1749
49830812,40571,49830920,1731
49835812,40569,49835922,1735
49840812,40600,49840919,1855
49845812,40614,49845922,1777
49850812,40679,49850920,1744
49855812,40690,49855922,1754
49860812,40716,49860920,1856
49865812,40738,49865922,1807
49870812,40733,49870920,1742
49875812,40797,49875922,1794
49880812,40846,49880920,1810
49885812,40850,49885922,1798
49890812,40887,49890920,1792
49895812,40939,49895922,1854
49900812,40940,49900920,1903
49905812,40966,49905922,1821
49910812,41006,49910920,1889
49915812,41043,49915922,1920
49920812,41036,49920920,2006
49925812,41089,49925922,1862
49930812,41113,49930920,1851
49935812,41147,49935922,1836
49940812,41212,49940920,1967
49945812,41170,49945922,1859
49950812,41197,49950919,1792
49955812,41249,49955922,1855
49960812,41257,49960920,1936
49965812,41344,49965922,1808
49970812,41295,49970920,1749
49975812,41361,49975922,1866
49980812,41393,49980920,1919
49985812,41422,49985922,1783
49990812,41446,49990920,1808
49995812,41472,49995922,1855
50000812,41493,50000920,1904
50005812,41523,50005922,1850
50010812,41584,50010920,1879
50015812,41573,50015921,1838
50020812,41605,50020920,1966
50025812,41623,50025922,1979
50030812,41688,50030920,2032
50035812,41685,50035922,2319
50040812,41714,50040920,3011
50045812,41754,50045922,4095
50050812,41770,50050920,4095
50055812,41761,50055922,4095
50060812,41803,50060920,4095
50065812,41818,50065922,2453
50070812,41837,50070920,1523
50075812,41863,50075922,1570
50080812,41865,50080920,1771
50085812,41918,50085922,1856
50091812,41903,50091920,1787
50096812,41939,50096922,1779
50101812,41929,50101920,1829
50106812,41953,50106921,1706
50111812,41967,50111920,1708
50116812,41974,50116922,1738
50121812,41987,50121920,1853
50126812,41995,50126922,1738
50131812,41994,50131920,1710
50136812,42030,50136922,1815
50141812,42032,50141920,1885
50146812,42052,50146922,1790
50151812,42065,50151920,1739
50156812,42072,50156922,1808
50161812,42053,50161919,1878
50166812,42094,50166922,1813
50171812,42092,50171920,1809
50176812,42132,50176922,1837
50181812,42143,50181920,1954
50186812,42151,50186922,1806
50191812,42153,50191919,1931
50196812,42178,50196922,1966
50201812,42202,50201920,2003
50206812,42252,50206922,1930
50211812,42234,50211920,1907
50216812,42278,50216922,2025
50221812,42266,50221920,2027
50226812,42337,50226922,1999
50231812,42360,50231920,1998
50236812,42366,50236922,2135
50241812,42391,50241920,2155
50246812,42388,50246921,2088
50251812,42455,50251920,2155
50256812,42508,50256922,2194
50261812,42526,50261919,2271
50266812,42549,50266922,2201
50271812,42581,50271919,2224
50276812,42566,50276922,2270
50281812,42567,50281920,2333
50286812,42568,50286922,2220
50291812,42544,50291919,2238
50296812,42474,50296922,2245
50301812,42426,50301920,2301
50306812,42364,50306922,2193
50311812,42256,50311920,2133
50316812,42154,50316921,2093
50321812,42026,50321920,2139
50326812,41870,50326922,1936
50331812,41778,50331919,1838
50336812,41616,50336922,1850
50341812,41485,50341919,1841
50346812,41316,50346922,1667
50351812,41212,50351920,1627
50356812,41075,50356922,1600
50361812,40926,50361920,1648
50366812,40782,50366922,1573
50371812,40694,50371919,1535
50376812,40582,50376922,1515
50381812,40504,50381920,1594
50386812,40410,50386921,1503
50391812,40340,50391919,1491
50396812,40272,50396922,1546
50401812,40227,50401920,1578
50406812,40182,50406921,1508
50411812,40177,50411919,1556
50416812,40146,50416922,1530
50421812,40134,50421919,1581
50426812,40112,50426922,1551
50431812,40136,50431920,1563
50436812,40106,50436921,1552
50441812,40125,50441920,1664
50446812,40166,50446922,1529
50451812,40154,50451920,1494
50456812,40199,50456922,1646
50461812,40223,50461919,1695
50466812,40281,50466922,1582
50471812,40329,50471920,1575
50476812,40322,50476922,1626
50481812,40361,50481920,1664
50486812,40424,50486922,1607
50491812,40534,50491920,1600
50496812,40569,50496922,1578
50501812,40558,50501919,1721
50506812,40646,50506922,1570
50511812,40681,50511920,1589
50516812,40748,50516922,1679
50521812,40763,50521920,1664
50526812,40850,50526922,1583
50531812,40905,50531919,1591
50536812,40947,50536921,1631
50541812,40990,50541920,1675
50546812,41019,50546922,1581
50551812,41059,50551920,1587
50556812,41093,50556922,1712
50561812,41131,50561920,1674
50566812,41193,50566922,1629
50571812,41201,50571920,1546
50576812,41229,50576922,1659
50581812,41259,50581920,1680
50586812,41255,50586921,1655
50591812,41291,50591920,1604
50596812,41299,50596922,1707
50601812,41280,50601919,1706
50606812,41294,50606922,1663
50611812,41281,50611920,1599
50616812,41266,50616922,1697
50621812,41275,50621920,1783
50626812,41284,50626922,1646
50631812,41214,50631920,1616
50636812,41202,50636922,1677
50641812,41141,50641920,1761
50646812,41156,50646922,1637
50651812,41125,50651919,1659
50656812,41151,50656922,1706
50661812,41148,50661919,1751
50666812,41073,50666922,1714
50671812,41042,50671920,1709
50676812,40994,50676922,1729
50681812,40995,50681920,1802
50686812,40978,50686922,1741
50691812,41001,50691920,1660
50696812,40961,50696922,1687
50701812,40964,50701920,1776
50706812,40959,50706922,1732
50711812,40972,50711920,1735
50716812,40965,50716922,1696
50721812,40961,50721919,1790
50726812,40969,50726922,1714
50731812,40973,50731920,1686
50736812,40992,50736922,1735
50741812,40996,50741920,1824
50746812,41019,50746922,1755
50751812,41043,50751920,1712
50756812,41067,50756922,1764
50761812,41043,50761920,1822
50766812,41092,50766922,1776
50771812,41086,50771920,1744
50776812,41134,50776922,1799
50781812,41142,50781920,1893
50786812,41180,50786922,1845
50791812,41203,50791920,1870
50796812,41201,50796922,1904
50801812,41254,50801919,1963
50806812,41253,50806922,1813
50811812,41277,50811920,1831
50817812,41311,50817922,1849
50822812,41320,50822920,1899
50827812,41343,50827922,1777
50832812,41337,50832920,1746
50837812,41396,50837922,1855
50842812,41413,50842920,1857
50847812,41463,50847922,1717
50852812,41472,50852920,1760
50857812,41504,50857922,1807
50862812,41527,50862920,1857
50867812,41586,50867922,1755
50872812,41580,50872919,1808
50877812,41591,50877922,1905
50882812,41637,50882920,1853
50887812,41662,50887922,1761
50892812,41697,50892920,1872
50897812,41710,50897922,1951
50902812,41719,50902920,2027
50907812,41780,50907922,2182
50912812,41778,50912920,2811
50917812,41856,50917922,4095
50922812,41853,50922919,4095
50927812,41868,50927922,4095
50932812,41923,50932920,4095
50937812,41952,50937922,2474
50942812,41966,50942920,1590
50947812,42015,50947922,1483
50952812,42021,50952920,1747
50957812,42089,50957922,1855
50962812,42101,50962920,1900
50967812,42125,50967922,1723
50972812,42093,50972919,1691
50977812,42151,50977922,1803
50982812,42208,50982920,1794
50987812,42217,50987922,1713
50992812,42237,50992920,1735
50997812,42286,50997922,1741
51002812,42292,51002920,1852
51007812,42327,51007922,1765
51012812,42329,51012920,1718
51017812,42344,51017922,1820
51022812,42355,51022920,1882
51027812,42400,51027922,1745
51032812,42399,51032920,1795
51037812,42421,51037922,1870
51042812,42441,51042919,1925
51047812,42499,51047922,1777
51052812,42475,51052920,1852
51057812,42508,51057922,1949
51062812,42519,51062920,2001
51067812,42566,51067922,1853
51072812,42576,51072920,1862
51077812,42636,51077922,1943
51082812,42606,51082919,1985
51087812,42660,51087922,1945
51092812,42684,51092919,2014
51097812,42691,51097922,2079
51102812,42744,51102920,2090
51107812,42775,51107921,1993
51112812,42788,51112920,2097
51117812,42808,51117922,2177
51122812,42863,51122920,2222
51127812,42867,51127922,2117
51132812,42889,51132920,2107
51137812,42907,51137922,2229
51142812,42926,51142920,2298
51147812,42921,51147922,2192
51152812,42900,51152920,2237
51157812,42901,51157922,2305
51162812,42855,51162920,2323
51167812,42760,51167922,2166
51172812,42724,51172920,2175
51177812,42605,51177922,2253
51182812,42511,51182920,2235
51187812,42344,51187922,2101
51192812,42247,51192920,2007
51197812,42077,51197922,2023
51202812,41913,51202920,2000
51207812,41724,51207922,1850
51212812,41588,51212920,1698
51217812,41429,51217922,1790
51222812,41290,51222919,1743
51227812,41089,51227922,1554
51232812,40949,51232920,1582
51237812,40804,51237922,1601
51242812,40685,51242919,1631
51247812,40529,51247922,1505
51252812,40472,51252919,1520
51257812,40313,51257922,1595
51262812,40248,51262919,1593
51267812,40192,51267922,1498
51272812,40154,51272920,1483
51277812,40129,51277922,1520
51282812,40006,51282920,1584
51287812,39953,51287922,1549
51292812,40002,51292919,1508
51297812,39932,51297922,1615
51302812,39932,51302919,1664
51307812,39923,51307922,1554
51312812,39990,51312920,1535
51317812,39992,51317922,1594
51322812,40002,51322920,1666
51327812,40013,51327922,1558
51332812,40087,51332920,1552
51337812,40099,51337922,1674
51342812,40133,51342920,1686
51347812,40171,51347922,1581
51352812,40192,51352920,1564
51357812,40237,51357922,1605
51362812,40264,51362920,1685
51367812,40283,51367922,1617
51372812,40368,51372919,1557
51377812,40397,51377922,1679
51382812,40444,51382919,1709
51387812,40484,51387922,1587
51392812,40528,51392920,1590
51397812,40553,51397922,1674
51402812,40651,51402920,1743
51407812,40665,51407922,1574
51412812,40717,51412919,1616
51417812,40769,51417922,1627
51422812,40761,51422919,1666
51427812,40790,51427922,1655
51432812,40853,51432920,1631
51437812,40872,51437922,1677
51442812,40892,51442919,1719
51447812,40910,51447922,1621
51452812,40910,51452919,1661
51457812,40929,51457922,1653
51462812,40953,51462920,1680
51467812,40967,51467922,1616
51472812,40933,51472920,1645
51477812,40939,51477922,1669
51482812,40924,51482920,1730
51487812,40908,51487922,1708
51492812,40904,51492920,1662
51497812,40898,51497922,1713
51502812,40881,51502920,1744
51507812,40857,51507922,1663
51512812,40824,51512920,1679
51517812,40801,51517922,1715
51522812,40767,51522919,1771
51527812,40759,51527922,1681
51532812,40746,51532919,1659
51537812,40710,51537922,1743
51542812,40697,51542920,1788
51547812,40698,51547922,1686
51552812,40697,51552919,1674
51558812,40666,51558922,1822
51563812,40651,51563920,1733
51568812,40623,51568922,1687
51573812,40614,51573920,1707
51578812,40618,51578922,1756
51583812,40613,51583919,1824
51588812,40620,51588922,1685
51593812,40634,51593920,1729
51598812,40632,51598922,1771
51603812,40617,51603920,1834
51608812,40635,51608922,1712
51613812,40611,51613920,1707
51618812,40658,51618922,1837
51623812,40651,51623920,1767
51628812,40679,51628922,1695
51633812,40684,51633920,1745
51638812,40710,51638922,1807
51643812,40735,51643919,1797
51648812,40765,51648922,1709
51653812,40786,51653920,1764
51658812,40806,51658922,1863
51663812,40846,51663920,1878
51668812,40870,51668922,1823
51673812,40909,51673920,1902
51678812,40936,51678921,1952
51683812,40964,51683919,1904
51688812,40987,51688922,1815
51693812,41037,51693919,1889
51698812,41101,51698922,1871
51703812,41066,51703920,1870
51708812,41124,51708922,1763
51713812,41149,51713920,1840
51718812,41146,51718922,1858
51723812,41258,51723919,1918
51728812,41277,51728922,1750
51733812,41282,51733920,1807
51738812,41329,51738922,1825
51743812,41370,51743920,1878
51748812,41418,51748922,1783
51753812,41413,51753920,1780
51758812,41463,51758922,1871
51763812,41526,51763920,1867
51768812,41514,51768922,1819
51773812,41561,51773919,1869
51778812,41587,51778922,1910
51783812,41613,51783920,1997
51788812,41634,51788922,1930
51793812,41690,51793920,2342
51798812,41669,51798922,3255
51803812,41754,51803920,4095
51808812,41761,51808921,4095
51813812,41800,51813919,4095
51818812,41810,51818922,3648
51823812,41913,51823920,2032
51828812,41886,51828922,1424
51833812,41953,51833920,1631
51838812,41938,51838922,1871
51843812,41980,51843920,1889
51848812,41980,51848922,1779
51853812,42043,51853920,1712
51858812,42066,51858922,1846
51863812,42110,51863920,1813
51868812,42137,51868922,1735
51873812,42162,51873919,1744
51878812,42159,51878922,1812
51883812,42218,51883919,1808
51888812,42246,51888922,1762
51893812,42268,51893920,1778
51898812,42255,51898922,1862
51903812,42288,51903920,1869
51908812,42272,51908922,1770
51913812,42317,51913920,1767
51918812,42315,51918922,1898
51923812,42344,51923920,1930
51928812,42359,51928922,1779
51933812,42412,51933920,1873
51938812,42426,51938922,1918
51943812,42435,51943920,1965
51948812,42428,51948922,1840
51953812,42467,51953920,1920
51958812,42461,51958922,1958
51963812,42490,51963920,1990
51968812,42475,51968922,1947
51973812,42538,51973920,1904
51978812,42539,51978922,2047
51983812,42560,51983919,2086
51988812,42562,51988922,2003
51993812,42584,51993920,2046
51998812,42605,51998922,2160
52003812,42633,52003920,2202
52008812,42636,52008922,2137
52013812,42662,52013920,2163
52018812,42641,52018922,2230
52023812,42657,52023920,2299
52028812,42640,52028922,2192
52033812,42611,52033920,2239
52038812,42550,52038922,2304
52043812,42485,52043920,2269
52048812,42347,52048922,2163
52053812,42255,52053920,2174
52058812,42152,52058922,2226
52063812,42011,52063920,2241
52068812,41862,52068922,2045
52073812,41686,52073919,2060
52078812,41512,52078922,2110
52083812,41337,52083920,1985
52088812,41136,52088922,1853
52093812,40970,52093920,1787
52098812,40763,52098922,1789
52103812,40599,52103920,1801
52108812,40432,52108922,1664
52113812,40237,52113920,1587
52118812,40064,52118922,1683
52123812,39951,52123919,1650
52128812,39789,52128922,1517
52133812,39714,52133920,1526
52138812,39591,52138922,1597
52143812,39503,52143920,1664
52148812,39455,52148922,1485
52153812,39392,52153920,1547
52158812,39331,52158922,1629
52163812,39257,52163920,1616
52168812,39227,52168922,1503
52173812,39200,52173919,1589
52178812,39167,52178922,1612
52183812,39196,52183920,1654
52188812,39197,52188922,1606
52193812,39233,52193920,1573
52198812,39244,52198922,1649
52203812,39229,52203920,1635
52208812,39266,52208922,1567
52213812,39292,52213919,1584
52218812,39326,52218922,1637
52223812,39347,52223920,1706
52228812,39365,52228921,1561
52233812,39394,52233919,1563
52238812,39457,52238922,1623
52243812,39465,52243920,1719
52248812,39510,52248922,1561
52253812,39525,52253919,1658
52258812,39571,52258922,1687
52263812,39615,52263920,1710
52268812,39660,52268922,1595
52273812,39732,52273920,1599
52278812,39755,52278922,1680
52283812,39765,52283920,1719
52288812,39839,52288922,1584
52293812,39877,52293919,1651
52298812,39928,52298922,1679
52303812,39969,52303920,1749
52308812,40002,52308922,1563
52314812,40014,52314920,1618
52319812,40044,52319922,1707
52324812,40061,52324920,1678
52329812,40058,52329922,1646
52334812,40083,52334920,1621
52339812,40115,52339922,1705
52344812,40095,52344919,1776
52349812,40100,52349922,1628
52354812,40092,52354920,1649
52359812,40072,52359922,1706
52364812,40048,52364920,1744
52369812,40059,52369922,1707
52374812,40048,52374919,1677
52379812,40044,52379922,1728
52384812,40030,52384920,1745
52389812,39989,52389922,1627
52394812,39919,52394920,1648
52399812,39935,52399922,1744
52404812,39941,52404920,1733
52409812,39908,52409922,1642
52414812,39875,52414920,1717
52419812,39859,52419921,1815
52424812,39831,52424920,1803
52429812,39805,52429922,1714
52434812,39830,52434919,1727
52439812,39829,52439922,1792
52444812,39785,52444920,1798
52449812,39806,52449922,1723
52454812,39749,52454920,1715
52459812,39838,52459922,1823
52464812,39806,52464919,1835
52469812,39835,52469922,1678
52474812,39840,52474919,1662
52479812,39849,52479922,1796
52484812,39878,52484919,1825
52489812,39933,52489922,1763
52494812,39931,52494919,1703
52499812,39944,52499922,1805
52504812,39967,52504919,1853
52509812,39973,52509922,1743
52514812,40015,52514920,1710
52519812,40031,52519922,1825
52524812,40069,52524919,1820
52529812,40104,52529922,1751
52534812,40124,52534919,1783
52539812,40161,52539922,1871
52544812,40167,52544920,1941
52549812,40249,52549922,1879
52554812,40254,52554920,1872
52559812,40291,52559921,1967
52564812,40315,52564920,1943
52569812,40363,52569922,1843
52574812,40361,52574920,1788
52579812,40417,52579922,1910
52584812,40483,52584920,1872
52589812,40484,52589922,1764
52594812,40563,52594920,1792
52599812,40565,52599922,1823
52604812,40603,52604920,1856
52609812,40669,52609922,1808
52614812,40663,52614920,1773
52619812,40738,52619922,1857
52624812,40806,52624920,1854
52629812,40830,52629922,1745
52634812,40834,52634920,1758
52639812,40898,52639922,1856
52644812,40935,52644920,1883
52649812,40958,52649922,1831
52654812,41008,52654920,1889
52659812,41048,52659922,1919
52664812,41055,52664920,1968
52669812,41117,52669922,2083
52674812,41152,52674919,2718
52679812,41155,52679922,3981
52684812,41178,52684920,4095
52689812,41237,52689922,4095
52694812,41278,52694920,4095
52699812,41278,52699922,2530
52704812,41313,52704920,1550
52709812,41333,52709922,1545
52714812,41363,52714920,1724
52719812,41365,52719922,1947
52724812,41414,52724920,1869
52729812,41407,52729922,1738
52734812,41481,52734919,1795
52739812,41482,52739922,1770
52744812,41516,52744920,1774
52749812,41524,52749922,1749
52754812,41538,52754920,1739
52759812,41516,52759922,1859
52764812,41559,52764920,1786
52769812,41568,52769922,1710
52774812,41609,52774920,1773
52779812,41585,52779922,1813
52784812,41569,52784920,1878
52789812,41626,52789922,1809
52794812,41609,52794920,1766
52799812,41631,52799922,1878
52804812,41674,52804920,1936
52809812,41634,52809922,1849
52814812,41659,52814920,1846
52819812,41673,52819922,1959
52824812,41691,52824920,1997
52829812,41712,52829922,1886
52834812,41711,52834919,1925
52839812,41725,52839922,2013
52844812,41769,52844920,2031
52849812,41746,52849922,1888
52854812,41790,52854920,1939
52859812,41789,52859922,2067
52864812,41810,52864920,2110
52869812,41826,52869922,1990
52874812,41844,52874920,2082
52879812,41855,52879922,2167
52884812,41900,52884920,2162
52889812,41891,52889922,2137
52894812,41916,52894920,2165
52899812,41934,52899922,2269
52904812,41894,52904919,2255
52909812,41885,52909922,2158
52914812,41788,52914919,2183
52919812,41772,52919922,2311
52924812,41691,52924920,2291
52929812,41562,52929922,2157
52934812,41477,52934920,2164
52939812,41328,52939922,2192
52944812,41161,52944919,2201
52949812,40969,52949922,2047
52954812,40779,52954919,1991
52959812,40625,52959922,2087
52964812,40444,52964920,1975
52969812,40235,52969922,1787
52974812,40060,52974920,1744
52979812,39850,52979922,1779
52984812,39667,52984920,1691
52989812,39539,52989922,1566
52994812,39386,52994920,1594
52999812,39226,52999922,1648
53004812,39104,53004920,1601
53009812,38995,53009922,1529
53014812,38877,53014920,1527
53019812,38794,53019922,1586
53024812,38707,53024920,1604
53029812,38667,53029922,1534
53034812,38610,53034920,1552
53039812,38571,53039922,1616
53044812,38564,53044920,1623
53049812,38542,53049922,1489
53054812,38512,53054920,1616
53059812,38530,53059922,1636
53064812,38493,53064919,1657
53069812,38501,53069922,1578
53074812,38522,53074920,1619
53079812,38539,53079922,1665
53084812,38557,53084920,1646
53090812,38602,53090922,1603
53095812,38632,53095919,1648
53100812,38660,53100922,1721
53105812,38650,53105920,1682
53110812,38710,53110922,1552
53115812,38740,53115919,1567
53120812,38790,53120922,1631
53125812,38773,53125920,1650
53130812,38864,53130922,1565
53135812,38875,53135919,1619
53140812,38956,53140922,1629
53145812,39011,53145920,1616
53150812,39055,53150922,1595
53155812,39069,53155920,1648
53160812,39124,53160922,1680
53165812,39160,53165920,1685
53170812,39227,53170922,1582
53175812,39273,53175919,1569
53180812,39293,53180922,1683
53185812,39348,53185920,1691
53190812,39357,53190922,1637
53195812,39391,53195920,1629
53200812,39429,53200922,1753
53205812,39450,53205920,1713
53210812,39451,53210922,1645
53215812,39479,53215920,1616
53220812,39482,53220922,1679
53225812,39495,53225920,1699
53230812,39545,53230922,1648
53235812,39478,53235920,1687
53240812,39490,53240922,1754
53245812,39499,53245919,1749
53250812,39484,53250922,1661
53255812,39484,53255920,1661
53260812,39495,53260922,1793
53265812,39487,53265920,1743
53270812,39449,53270922,1679
53275812,39453,53275920,1706
53280812,39414,53280922,1749
53285812,39406,53285920,1790
53290812,39431,53290922,1653
53295812,39415,53295920,1719
53300812,39378,53300922,1759
53305812,39364,53305920,1793
53310812,39380,53310922,1691
53315812,39349,53315920,1701
53320812,39345,53320922,1801
53325812,39375,53325920,1793
53330812,39374,53330922,1671
53335812,39383,53335920,1710
53340812,39395,53340922,1859
53345812,39389,53345919,1805
53350812,39430,53350922,1712
53355812,39461,53355919,1727
53360812,39453,53360922,1826
53365812,39514,53365920,1809
53370812,39547,53370922,1727
53375812,39555,53375920,1755
53380812,39577,53380922,1886
53385812,39599,53385920,1793
53390812,39629,53390922,1712
53395812,39670,53395920,1782
53400812,39733,53400922,1822
53405812,39731,53405919,1855
53410812,39808,53410922,1743
53415812,39827,53415920,1727
53420812,39856,53420922,1846
53425812,39904,53425920,1823
53430812,39912,53430922,1769
53435812,39948,53435920,1823
53440812,40013,53440922,1841
53445812,40088,53445919,1909
53450812,40089,53450922,1841
53455812,40127,53455919,1917
53460812,40175,53460922,1981
53465812,40186,53465919,1951
53470812,40203,53470922,1882
53475812,40267,53475919,1851
53480812,40276,53480922,1930
53485812,40343,53485920,1925
53490812,40357,53490922,1748
53495812,40392,53495919,1795
53500812,40437,53500922,1887
53505812,40473,53505920,1813
53510812,40486,53510922,1825
53515812,40542,53515920,1872
53520812,40559,53520922,1887
53525812,40568,53525920,1816
53530812,40612,53530922,1808
53535812,40659,53535920,1842
53540812,40678,53540922,1878
53545812,40730,53545920,1920
53550812,40702,53550921,1773
53555812,40754,53555920,1841
53560812,40800,53560922,1952
53565812,40804,53565919,1982
53570812,40831,53570922,2021
53575812,40841,53575920,2475
53580812,40847,53580922,3473
53585812,40887,53585919,4095
53590812,40847,53590922,4095
53595812,40883,53595919,4095
53600812,40945,53600922,3507
53605812,40968,53605920,1967
53610812,40977,53610922,1447
53615812,41025,53615920,1643
53620812,41027,53620922,1878
53625812,41033,53625920,1907
53630812,41058,53630922,1810
53635812,41072,53635919,1746
53640812,41115,53640922,1779
53645812,41131,53645920,1813
53650812,41117,53650922,1721
53655812,41155,53655920,1779
53660812,41137,53660922,1790
53665812,41147,53665919,1791
53670812,41158,53670922,1751
53675812,41154,53675920,1817
53680812,41194,53680922,1891
53685812,41144,53685920,1797
53690812,41182,53690922,1708
53695812,41234,53695919,1778
53700812,41259,53700922,1883
53705812,41282,53705919,1851
53710812,41260,53710922,1797
53715812,41249,53715920,1879
53720812,41243,53720922,1927
53725812,41252,53725920,1890
53730812,41281,53730922,1904
53735812,41281,53735920,1909
53740812,41284,53740922,1938
53745812,41320,53745919,2018
53750812,41353,53750922,1939
53755812,41351,53755920,1983
53760812,41372,53760922,2055
53765812,41389,53765919,2064
53770812,41420,53770921,2007
53775812,41398,53775920,2058
53780812,41442,53780922,2157
53785812,41462,53785920,2157
53790812,41478,53790921,2113
53795812,41497,53795920,2155
53800812,41509,53800922,2257
53805812,41499,53805919,2223
53810812,41479,53810922,2196
53815812,41477,53815920,2206
53820812,41385,53820922,2333
53825812,41359,53825920,2259
53830812,41289,53830922,2198
53835812,41172,53835920,2219
53840812,41044,53840922,2238
53845812,40915,53845920,2199
53850812,40753,53850922,2081
53855812,40581,53855919,2081
53860812,40400,53860922,2109
53865812,40199,53865920,1983
53870812,40026,53870922,1830
53876812,39838,53876920,1779
53881812,39664,53881922,1785
53886812,39452,53886920,1741
53891812,39326,53891922,1616
53896812,39137,53896920,1550
53901812,38969,53901922,1687
53906812,38858,53906919,1618
53911812,38749,53911922,1495
53916812,38612,53916919,1556
53921812,38537,53921922,1613
53926812,38463,53926920,1600
53931812,38393,53931922,1535
53936812,38324,53936920,1507
53941812,38326,53941922,1610
53946812,38258,53946920,1584
53951812,38244,53951922,1526
53956812,38256,53956920,1601
53961812,38236,53961922,1629
53966812,38267,53966920,1598
53971812,38274,53971922,1535
53976812,38278,53976920,1579
53981812,38297,53981922,1649
53986812,38326,53986920,1606
53991812,38370,53991922,1559
53996812,38355,53996919,1611
54001812,38402,54001921,1651
54006812,38488,54006920,1643
54011812,38511,54011921,1603
54016812,38506,54016920,1631
54021812,38569,54021922,1694
54026812,38626,54026920,1655
54031812,38718,54031922,1616
54036812,38734,54036920,1596
54041812,38789,54041922,1702
54046812,38822,54046920,1658
54051812,38921,54051922,1565
54056812,38965,54056920,1563
54061812,39064,54061922,1693
54066812,39108,54066919,1616
54071812,39156,54071921,1606
54076812,39232,54076920,1632
54081812,39255,54081922,1698
54086812,39297,54086920,1642
54091812,39325,54091922,1587
54096812,39354,54096920,1617
54101812,39394,54101922,1716
54106812,39382,54106919,1664
54111812,39422,54111922,1635
54116812,39439,54116920,1616
54121812,39463,54121921,1746
54126812,39463,54126920,1664
54131812,39442,54131922,1584
54136812,39432,54136919,1629
54141812,39487,54141922,1811
54146812,39458,54146920,1693
54151812,39472,54151922,1669
54156812,39448,54156920,1675
54161812,39465,54161922,1762
54166812,39453,54166920,1739
54171812,39447,54171922,1661
54176812,39370,54176920,1727
54181812,39382,54181922,1778
54186812,39352,54186920,1755
54191812,39381,54191922,1645
54196812,39410,54196920,1726
54201812,39389,54201922,1823
54206812,39342,54206919,1747
54211812,39348,54211922,1690
54216812,39374,54216920,1739
54221812,39358,54221922,1741
54226812,39387,54226920,1716
54231812,39382,54231922,1714
54236812,39379,54236920,1727
54241812,39410,54241922,1795
54246812,39385,54246919,1775
54251812,39433,54251922,1749
54256812,39462,54256919,1783
54261812,39479,54261922,1787
54266812,39488,54266920,1779
54271812,39495,54271922,1706
54276812,39557,54276919,1789
54281812,39540,54281922,1823
54286812,39578,54286920,1789
54291812,39607,54291922,1743
54296812,39632,54296920,1801
54301812,39657,54301922,1846
54306812,39695,54306920,1822
54311812,39715,54311922,1754
54316812,39761,54316920,1724
54321812,39791,54321922,1856
54326812,39794,54326920,1819
54331812,39838,54331922,1786
54336812,39898,54336920,1795
54341812,39951,54341922,1877
54346812,39952,54346919,1856
54351812,39969,54351922,1833
54356812,40020,54356920,1846
54361812,39999,54361922,1939
54366812,40065,54366920,1931
54371812,40105,54371922,1889
54376812,40126,54376920,1919
54381812,40141,54381922,1906
54386812,40168,54386920,1911
54391812,40173,54391922,1766
54396812,40242,54396920,1809
54401812,40282,54401922,1900
54406812,40299,54406920,1907
54411812,40323,54411922,1749
54416812,40342,54416919,1840
54421812,40399,54421922,1892
54426812,40426,54426920,1840
54431812,40447,54431922,1771
54436812,40490,54436920,1777
54441812,40524,54441922,1859
54446812,40534,54446920,1845
54451812,40593,54451922,1790
54456812,40590,54456919,1829
54461812,40563,54461922,1872
54466812,40643,54466919,1939
54471812,40655,54471922,1877
54476812,40675,54476920,1959
54481812,40704,54481922,2162
54486812,40679,54486919,2523
54491812,40716,54491922,3318
54496812,40755,54496920,4095
54501812,40739,54501922,4095
54506812,40761,54506920,4095
54511812,40761,54511922,3563
54516812,40782,54516920,1995
54521812,40797,54521922,1529
54526812,40821,54526920,1594
54531812,40831,54531922,1727
54536812,40834,54536920,1868
54541812,40842,54541922,1909
54546812,40867,54546920,1847
54551812,40882,54551922,1696
54556812,40889,54556920,1744
54561812,40918,54561922,1831
54566812,40920,54566920,1787
54571812,40905,54571922,1735
54576812,40932,54576920,1725
54581812,40963,54581921,1867
54586812,40957,54586920,1835
54591812,40971,54591922,1715
54596812,40964,54596920,1808
54601812,41022,54601922,1894
54606812,41011,54606920,1872
54611812,41010,54611922,1762
54616812,41031,54616920,1846
54621812,41019,54621922,1951
54626812,41059,54626920,1915
54631812,41063,54631922,1799
54636812,41045,54636920,1853
54641812,41085,54641922,1957
54646812,41123,54646919,1963
54651812,41119,54651922,1875
54656812,41136,54656919,1977
54661812,41128,54661922,2038
54666812,41177,54666920,1990
54671812,41184,54671922,1945
54677812,41183,54677920,2071
54682812,41196,54682922,2145
54687812,41243,54687919,2064
54692812,41251,54692922,2061
54697812,41266,54697920,2163
54702812,41301,54702922,2258
54707812,41332,54707920,2188
54712812,41329,54712922,2161
54717812,41363,54717920,2224
54722812,41342,54722922,2278
54727812,41331,54727920,2279
54732812,41306,54732922,2223
54737812,41272,54737920,2221
54742812,41199,54742922,2314
54747812,41142,54747919,2252
54752812,41000,54752922,2129
54757812,40907,54757919,2183
54762812,40788,54762922,2211
54767812,40643,54767920,2094
54772812,40499,54772922,1985
54777812,40340,54777920,1904
54782812,40157,54782922,1972
54787812,39995,54787919,1827
54792812,39816,54792922,1690
54797812,39644,54797920,1729
54802812,39514,54802922,1728
54807812,39354,54807920,1654
54812812,39197,54812922,1498
54817812,39053,54817920,1543
54822812,38934,54822922,1616
54827812,38853,54827919,1547
54832812,38772,54832922,1520
54837812,38673,54837919,1531
54842812,38599,54842922,1599
54847812,38576,54847920,1522
54852812,38535,54852922,1454
54857812,38490,54857919,1571
54862812,38513,54862922,1625
54867812,38490,54867920,1600
54872812,38482,54872922,1481
54877812,38482,54877919,1598
54882812,38520,54882922,1680
54887812,38511,54887920,1607
54892812,38526,54892922,1530
54897812,38549,54897920,1591
54902812,38616,54902922,1665
54907812,38634,54907919,1577
54912812,38660,54912922,1569
54917812,38720,54917920,1584
54922812,38747,54922922,1655
54927812,38804,54927920,1645
54932812,38825,54932922,1590
54937812,38928,54937920,1661
54942812,38967,54942921,1691
54947812,39014,54947920,1564
54952812,39096,54952922,1574
54957812,39155,54957920,1595
54962812,39211,54962922,1680
54967812,39275,54967920,1619
54972812,39356,54972922,1589
54977812,39385,54977920,1586
54982812,39462,54982922,1703
54987812,39537,54987919,1634
54992812,39570,54992922,1588
54997812,39648,54997920,1637
55002812,39697,55002922,1699
55007812,39711,55007920,1617
55012812,39763,55012922,1607
55017812,39806,55017919,1612
55022812,39812,55022922,1737
55027812,39822,55027919,1645
55032812,39831,55032922,1585
55037812,39834,55037920,1650
55042812,39838,55042922,1701
55047812,39865,55047919,1658
55052812,39830,55052922,1630
55057812,39800,55057920,1709
55062812,39847,55062922,1747
55067812,39828,55067920,1702
55072812,39757,55072922,1630
55077812,39757,55077920,1641
55082812,39758,55082922,1713
55087812,39737,55087920,1713
55092812,39700,55092922,1691
55097812,39703,55097919,1724
55102812,39692,55102922,1765
55107812,39690,55107919,1729
55112812,39671,55112922,1670
55117812,39639,55117919,1701
55122812,39624,55122922,1802
55127812,39629,55127919,1744
55132812,39581,55132922,1678
55137812,39648,55137920,1734
55142812,39608,55142922,1823
55147812,39629,55147920,1759
55152812,39601,55152922,1701
55157812,39633,55157919,1767
55162812,39661,55162922,1861
55167812,39653,55167920,1759
55172812,39628,55172922,1733
55177812,39663,55177919,1753
55182812,39608,55182922,1808
55187812,39648,55187920,1759
55192812,39716,55192922,1724
55197812,39693,55197920,1731
55202812,39755,55202922,1860
55207812,39751,55207920,1751
55212812,39789,55212922,1686
55217812,39855,55217920,1759
55222812,39884,55222922,1855
55227812,39898,55227920,1815
55232812,39913,55232922,1776
55237812,39934,55237920,1789
55242812,39965,55242922,1925
55247812,40052,55247920,1863
55252812,40023,55252922,1817
55257812,40048,55257920,1839
55262812,40088,55262921,1923
55267812,40116,55267919,1865
55272812,40112,55272921,1755
55277812,40158,55277920,1776
55282812,40184,55282922,1874
55287812,40187,55287920,1767
55292812,40240,55292922,1724
55297812,40306,55297920,1795
55302812,40312,55302922,1907
55307812,40335,55307920,1793
55312812,40302,55312922,1771
55317812,40391,55317920,1776
55322812,40413,55322922,1867
55327812,40422,55327920,1863
55332812,40465,55332922,1745
55337812,40491,55337919,1783
55342812,40533,55342922,1936
55347812,40508,55347920,1887
55352812,40569,55352922,1899
55357812,40590,55357920,1987
55362812,40614,55362922,2179
55367812,40632,55367920,2549
55372812,40679,55372922,3348
55377812,40662,55377920,4095
55382812,40688,55382922,4095
55387812,40707,55387920,4095
55392812,40718,55392922,3285
55397812,40772,55397920,1837
55402812,40805,55402922,1496
55407812,40796,55407920,1611
55412812,40829,55412922,1730
55417812,40873,55417920,1776
55422812,40835,55422922,1847
55427812,40878,55427920,1745
55432812,40866,55432922,1702
55437812,40899,55437920,1727
55442812,40897,55442922,1776
55447812,40921,55447920,1797
55453812,40913,55453922,1718
55458812,40918,55458919,1779
55463812,40949,55463922,1869
55468812,40950,55468919,1771
55473812,40947,55473922,1744
55478812,40954,55478919,1744
55483812,40975,55483922,1831
55488812,40976,55488919,1783
55493812,40990,55493922,1783
55498812,41006,55498919,1819
55503812,40975,55503922,1935
55508812,41005,55508919,1872
55513812,41014,55513922,1841
55518812,41039,55518919,1879
55523812,41045,55523922,1973
55528812,41060,55528920,1849
55533812,41084,55533922,1843
55538812,41079,55538920,2000
55543812,41116,55543922,1990
55548812,41124,55548920,1980
55553812,41144,55553922,1951
55558812,41142,55558920,2015
55563812,41194,55563922,2117
55568812,41209,55568920,2058
55573812,41235,55573922,2039
55578812,41242,55578920,2163
55583812,41271,55583921,2193
55588812,41293,55588920,2157
55593812,41357,55593922,2159
55598812,41312,55598920,2175
55603812,41308,55603922,2330
55608812,41303,55608919,2218
55613812,41286,55613922,2237
55618812,41236,55618919,2197
55623812,41182,55623922,2293
55628812,41132,55628919,2235
55633812,41041,55633922,2141
55638812,40905,55638920,2179
55643812,40779,55643922,2219
55648812,40645,55648920,2094
55653812,40494,55653922,1970
55658812,40340,55658920,1927
55663812,40185,55663922,1971
55668812,40005,55668920,1831
55673812,39818,55673922,1676
55678812,39665,55678920,1685
55683812,39514,55683922,1732
55688812,39361,55688919,1635
55693812,39250,55693922,1554
55698812,39126,55698920,1566
55703812,39019,55703922,1617
55708812,38883,55708920,1519
55713812,38864,55713922,1490
55718812,38741,55718919,1506
55723812,38695,55723922,1568
55728812,38640,55728919,1530
55733812,38589,55733922,1495
55738812,38583,55738919,1534
55743812,38609,55743922,1641
55748812,38606,55748919,1552
55753812,38574,55753922,1569
55758812,38610,55758920,1584
55763812,38605,55763922,1663
55768812,38649,55768920,1615
55773812,38650,55773922,1553
55778812,38705,55778920,1671
55783812,38749,55783922,1687
55788812,38765,55788920,1674
55793812,38812,55793922,1545
55798812,38867,55798920,1649
55803812,38917,55803922,1717
55808812,38938,55808919,1597
55813812,39013,55813922,1586
55818812,39037,55818920,1651
55823812,39075,55823922,1706
55828812,39125,55828920,1643
55833812,39170,55833922,1595
55838812,39232,55838920,1680
55843812,39285,55843922,1725
55848812,39366,55848920,1616
55853812,39421,55853922,1555
55858812,39467,55858920,1613
55863812,39494,55863922,1733
55868812,39573,55868920,1584
55873812,39583,55873921,1602
55878812,39619,55878920,1630
55883812,39654,55883922,1766
55888812,39733,55888920,1617
55893812,39693,55893922,1598
55898812,39774,55898920,1655
55903812,39746,55903921,1686
55908812,39798,55908920,1675
55913812,39775,55913922,1586
55918812,39806,55918920,1662
55923812,39827,55923922,1755
55928812,39786,55928919,1699
55933812,39726,55933922,1604
55938812,39756,55938919,1659
55943812,39708,55943922,1775
55948812,39687,55948920,1690
55953812,39743,55953922,1675
55958812,39698,55958920,1664
55963812,39697,55963922,1794
55968812,39682,55968920,1680
55973812,39669,55973922,1675
55978812,39646,55978920,1681
55983812,39634,55983922,1759
55988812,39629,55988919,1707
55993812,39630,55993922,1635
55998812,39610,55998920,1675
56003812,39608,56003922,1793
56008812,39578,56008920,1673
56013812,39569,56013922,1642
56018812,39581,56018920,1683
56023812,39553,56023922,1821
56028812,39579,56028920,1747
56033812,39527,56033921,1712
56038812,39562,56038920,1695
56043812,39559,56043921,1810
56048812,39589,56048920,1751
56053812,39591,56053922,1712
56058812,39565,56058920,1759
56063812,39561,56063922,1777
56068812,39626,56068919,1728
56073812,39626,56073922,1787
56078812,39630,56078920,1792
56083812,39683,56083922,1869
56088812,39669,56088920,1805
56093812,39727,56093922,1727
56098812,39745,56098920,1777
56103812,39774,56103922,1823
56108812,39777,56108920,1776
56113812,39826,56113922,1747
56118812,39868,56118920,1789
56123812,39874,56123922,1849
56128812,39900,56128919,1825
56133812,39932,56133922,1786
56138812,39969,56138919,1871
56143812,39982,56143922,1936
56148812,40022,56148920,1872
56153812,40048,56153922,1869
56158812,40084,56158919,1881
56163812,40114,56163922,1964
56168812,40133,56168920,1936
56173812,40177,56173922,1850
56178812,40208,56178920,1827
56183812,40263,56183922,1941
56188812,40262,56188920,1794
56193812,40310,56193922,1824
56198812,40313,56198920,1792
56203812,40343,56203922,1904
56208812,40370,56208920,1814
56214812,40407,56214922,1789
56219812,40432,56219920,1872
56224812,40444,56224922,1907
56229812,40499,56229919,1840
56234812,40522,56234922,1744
56239812,40525,56239920,1861
56244812,40537,56244922,1938
56249812,40593,56249920,1773
56254812,40623,56254922,1846
56259812,40586,56259920,1886
56264812,40634,56264922,1978
56269812,40649,56269919,2032
56274812,40675,56274922,2450
56279812,40652,56279920,3414
56284812,40697,56284922,4095
56289812,40713,56289920,4095
56294812,40746,56294922,4095
56299812,40726,56299920,3565
56304812,40755,56304922,2064
56309812,40800,56309920,1505
56314812,40829,56314922,1671
56319812,40831,56319920,1831
56324812,40829,56324922,1962
56329812,40865,56329920,1813
56334812,40896,56334922,1730
56339812,40922,56339920,1761
56344812,40918,56344922,1835
56349812,40941,56349920,1762
56354812,40983,56354922,1791
56359812,41005,56359919,1783
56364812,41022,56364922,1840
56369812,41037,56369919,1756
56374812,41041,56374922,1724
56379812,41058,56379920,1851
56384812,41108,56384922,1871
56389812,41099,56389919,1778
56394812,41164,56394922,1809
56399812,41136,56399919,1813
56404812,41145,56404922,1906
56409812,41190,56409920,1841
56414812,41202,56414922,1842
56419812,41193,56419920,1872
56424812,41228,56424922,1939
56429812,41270,56429920,1902
56434812,41294,56434922,1882
56439812,41274,56439920,1895
56444812,41311,56444922,1999
56449812,41357,56449920,1941
56454812,41350,56454922,1919
56459812,41376,56459920,1983
56464812,41400,56464922,2112
56469812,41421,56469920,1983
56474812,41488,56474922,2032
56479812,41482,56479920,2064
56484812,41520,56484922,2233
56489812,41551,56489920,2117
56494812,41595,56494922,2126
56499812,41589,56499920,2209
56504812,41596,56504922,2289
56509812,41539,56509920,2205
56514812,41529,56514922,2194
56519812,41459,56519920,2237
56524812,41407,56524922,2299
56529812,41345,56529920,2253
56534812,41219,56534922,2179
56539812,41099,56539920,2211
56544812,40940,56544922,2247
56549812,40780,56549920,2130
56554812,40610,56554922,2071
56559812,40417,56559920,2036
56564812,40210,56564922,2025
56569812,40033,56569920,1936
56574812,39820,56574922,1809
56579812,39682,56579919,1801
56584812,39486,56584922,1796
56589812,39325,56589920,1638
56594812,39142,56594922,1639
