23417808,44822,23417916,1677
23422808,44834,23422918,1690
23427808,44807,23427916,1694
23432808,44792,23432918,1650
23437808,44813,23437916,1657
23442808,44798,23442918,1725
23447808,44783,23447915,1690
23452808,44807,23452918,1602
23457808,44827,23457915,1685
23462808,44837,23462918,1697
23467808,44799,23467915,1711
23472808,44804,23472918,1634
23477808,44848,23477916,1691
23482808,44865,23482918,1685
23487808,44833,23487916,1698
23492808,44846,23492918,1676
23497808,44892,23497916,1665
23502808,44897,23502918,1685
23507808,44938,23507916,1730
23512808,44911,23512918,1663
23517808,44966,23517916,1718
23522808,44947,23522918,1744
23527808,45025,23527916,1798
23532808,45002,23532918,1771
23537808,45033,23537916,1819
23542808,45043,23542918,1862
23547808,45049,23547916,1866
23552808,45092,23552918,1840
23557808,45164,23557915,1790
23562808,45140,23562918,1789
23567808,45189,23567916,1773
23572808,45254,23572918,1744
23577808,45274,23577915,1722
23582808,45306,23582918,1776
23587808,45362,23587916,1771
23592808,45411,23592918,1729
23597808,45461,23597916,1707
23602808,45459,23602918,1810
23607808,45491,23607916,1763
23612808,45533,23612918,1727
23617808,45548,23617915,1757
23622808,45603,23622918,1758
23627808,45629,23627916,1835
23632808,45676,23632918,1733
23637808,45651,23637916,1793
23642808,45729,23642918,1872
23647808,45747,23647916,1897
23652808,45767,23652918,1901
23657808,45823,23657916,2385
23662808,45816,23662918,3284
23667808,45841,23667916,4095
23672808,45811,23672918,4095
23677808,45879,23677916,4095
23682808,45907,23682918,3678
23687808,45921,23687915,2041
23692808,45976,23692918,1435
23697808,45988,23697916,1584
23702808,46054,23702918,1869
23707808,46065,23707916,1801
23712808,46115,23712918,1774
23717808,46130,23717916,1719
23722808,46149,23722918,1741
23727808,46182,23727916,1711
23732808,46214,23732918,1677
23737808,46201,23737916,1739
23742808,46240,23742918,1755
23747808,46264,23747916,1791
23752808,46320,23752918,1715
23757808,46314,23757915,1737
23762808,46341,23762918,1790
23767808,46354,23767916,1798
23772808,46408,23772918,1735
23777808,46416,23777916,1762
23782808,46451,23782918,1864
23787808,46446,23787915,1787
23792808,46486,23792918,1803
23797808,46504,23797915,1835
23802808,46492,23802918,1858
23808808,46513,23808916,1879
23813808,46544,23813918,1873
23818808,46555,23818915,1915
23823808,46581,23823918,1946
23828808,46587,23828915,1967
23833808,46604,23833918,1949
23838808,46630,23838916,1965
23843808,46637,23843918,2062
23848808,46635,23848915,2030
23853808,46679,23853918,2074
23858808,46669,23858916,2071
23863808,46690,23863918,2165
23868808,46713,23868916,2149
23873808,46734,23873918,2145
23878808,46718,23878916,2163
23883808,46699,23883918,2256
23888808,46693,23888916,2267
23893808,46676,23893918,2221
23898808,46571,23898916,2244
23903808,46527,23903918,2227
23908808,46437,23908916,2214
23913808,46318,23913918,2174
23918808,46177,23918915,2163
23923808,46068,23923918,2183
23928808,45876,23928916,2115
23933808,45705,23933918,2041
23938808,45499,23938916,2000
23943808,45355,23943918,2006
23948808,45121,23948916,1911
23953808,44929,23953918,1819
23958808,44717,23958916,1828
23963808,44596,23963918,1780
23968808,44431,23968916,1725
23973808,44298,23973918,1711
23978808,44150,23978916,1693
23983808,44035,23983918,1712
23988808,43925,23988916,1642
23993808,43826,23993918,1603
23998808,43788,23998916,1648
24003808,43745,24003918,1697
24008808,43667,24008916,1600
24013808,43676,24013918,1637
24018808,43633,24018916,1628
24023808,43622,24023918,1690
24028808,43604,24028916,1685
24033808,43598,24033918,1651
24038808,43646,24038916,1637
24043808,43632,24043918,1652
24048808,43681,24048916,1671
24053808,43683,24053918,1633
24058808,43754,24058916,1680
24063808,43773,24063918,1717
24068808,43804,24068916,1677
24073808,43839,24073918,1605
24078808,43870,24078916,1628
24083808,43960,24083918,1705
24088808,44006,24088916,1668
24093808,44065,24093918,1641
24098808,44108,24098916,1636
24103808,44165,24103918,1680
24108808,44192,24108915,1679
24113808,44261,24113918,1630
24118808,44334,24118916,1591
24123808,44392,24123918,1673
24128808,44434,24128916,1591
24133808,44490,24133918,1617
24138808,44588,24138916,1636
24143808,44613,24143917,1667
24148808,44667,24148915,1644
24153808,44696,24153918,1613
24158808,44784,24158916,1599
24163808,44832,24163918,1653
24168808,44863,24168916,1645
24173808,44900,24173918,1617
24178808,44953,24178916,1638
24183808,44984,24183918,1664
24188808,45022,24188916,1638
24193808,45055,24193918,1600
24198808,45076,24198915,1617
24203808,45056,24203918,1738
24208808,45068,24208916,1652
24213808,45099,24213918,1621
24218808,45120,24218916,1653
24223808,45138,24223918,1698
24228808,45113,24228916,1653
24233808,45115,24233918,1670
24238808,45110,24238916,1677
24243808,45113,24243918,1671
24248808,45114,24248916,1625
24253808,45063,24253918,1646
24258808,45075,24258916,1618
24263808,45023,24263918,1729
24268808,44998,24268916,1691
24273808,45011,24273918,1668
24278808,44999,24278916,1691
24283808,44990,24283918,1695
24288808,44970,24288916,1718
24293808,44983,24293918,1677
24298808,44962,24298916,1697
24303808,44966,24303918,1749
24308808,44982,24308916,1742
24313808,44997,24313918,1735
24318808,44972,24318916,1729
24323808,44994,24323918,1735
24328808,45014,24328915,1753
24333808,45018,24333918,1682
24338808,45015,24338916,1721
24343808,45031,24343918,1763
24348808,45020,24348916,1731
24353808,45016,24353918,1711
24358808,45087,24358916,1791
24363808,45108,24363918,1817
24368808,45090,24368916,1797
24373808,45073,24373918,1777
24378808,45107,24378916,1762
24383808,45123,24383918,1855
24388808,45139,24388916,1883
24393808,45228,24393918,1879
24398808,45242,24398916,1840
24403808,45261,24403918,1903
24408808,45281,24408916,1846
24413808,45302,24413918,1823
24418808,45345,24418916,1776
24423808,45355,24423918,1843
24428808,45378,24428916,1801
24433808,45395,24433918,1792
24438808,45461,24438916,1831
24443808,45514,24443918,1831
24448808,45521,24448916,1792
24453808,45521,24453918,1756
24458808,45571,24458915,1789
24463808,45607,24463918,1808
24468808,45652,24468916,1835
24473808,45666,24473918,1771
24478808,45711,24478916,1822
24483808,45750,24483918,1871
24488808,45759,24488916,1846
24493808,45791,24493918,1902
24498808,45825,24498915,1947
24503808,45867,24503918,2211
24509808,45905,24509915,2847
24514808,45885,24514918,4095
24519808,45949,24519916,4095
24524808,45955,24524918,4095
24529808,45972,24529916,4095
24534808,45992,24534918,3171
24539808,46027,24539916,1780
24544808,46080,24544918,1520
24549808,46101,24549916,1603
24554808,46107,24554918,1779
24559808,46119,24559915,1747
24564808,46155,24564918,1813
24569808,46180,24569916,1693
24574808,46227,24574918,1696
24579808,46209,24579916,1745
24584808,46239,24584918,1783
24589808,46288,24589916,1759
24594808,46319,24594918,1731
24599808,46332,24599916,1760
24604808,46377,24604918,1809
24609808,46400,24609915,1739
24614808,46389,24614918,1744
24619808,46426,24619916,1782
24624808,46455,24624918,1871
24629808,46476,24629915,1808
24634808,46501,24634918,1785
24639808,46552,24639916,1827
24644808,46571,24644918,1877
24649808,46584,24649915,1855
24654808,46605,24654918,1869
24659808,46617,24659916,1850
24664808,46675,24664918,1927
24669808,46693,24669916,1847
24674808,46715,24674918,1906
24679808,46763,24679916,1890
24684808,46776,24684918,2001
24689808,46798,24689916,1968
24694808,46814,24694918,1951
24699808,46878,24699916,2018
24704808,46872,24704918,2047
24709808,46887,24709916,2031
24714808,46901,24714918,2054
24719808,46937,24719916,2149
24724808,46934,24724918,2203
24729808,46956,24729916,2165
24734808,46980,24734918,2145
24739808,46937,24739916,2186
24744808,46904,24744918,2261
24749808,46867,24749916,2176
24754808,46809,24754918,2148
24759808,46748,24759916,2181
24764808,46641,24764918,2180
24769808,46514,24769916,2124
24774808,46394,24774918,2078
24779808,46201,24779916,2077
24784808,46096,24784918,2075
24789808,45889,24789916,1938
24794808,45714,24794918,1938
24799808,45528,24799916,1936
24804808,45352,24804918,1887
24809808,45187,24809916,1774
24814808,45010,24814918,1694
24819808,44872,24819916,1711
24824808,44703,24824918,1682
24829808,44615,24829916,1605
24834808,44490,24834918,1606
24839808,44382,24839916,1565
24844808,44279,24844918,1600
24849808,44222,24849916,1587
24854808,44170,24854918,1543
24859808,44155,24859916,1529
24864808,44099,24864918,1618
24869808,44052,24869916,1600
24874808,44072,24874918,1584
24879808,44062,24879916,1648
24884808,44093,24884918,1674
24889808,44065,24889916,1617
24894808,44069,24894918,1584
24899808,44107,24899916,1615
24904808,44112,24904918,1687
24909808,44142,24909916,1663
24914808,44164,24914918,1605
24919808,44253,24919916,1631
24924808,44204,24924918,1665
24929808,44280,24929916,1655
24934808,44291,24934918,1647
24939808,44358,24939916,1666
24944808,44413,24944918,1712
24949808,44470,24949916,1650
24954808,44442,24954918,1600
24959808,44495,24959915,1663
24964808,44560,24964918,1669
24969808,44644,24969916,1650
24974808,44697,24974918,1598
24979808,44749,24979916,1584
24984808,44804,24984918,1616
24989808,44866,24989915,1602
24994808,44889,24994918,1597
24999808,44972,24999915,1607
25004808,45030,25004918,1626
25009808,45043,25009916,1633
25014808,45104,25014918,1602
25019808,45178,25019916,1665
25024808,45166,25024918,1657
25029808,45227,25029916,1616
25034808,45173,25034918,1609
25039808,45271,25039916,1630
25044808,45205,25044918,1712
25049808,45252,25049915,1661
25054808,45257,25054918,1617
25059808,45300,25059916,1649
25064808,45285,25064918,1679
25069808,45223,25069916,1611
25074808,45218,25074918,1616
25079808,45194,25079916,1671
25084808,45196,25084918,1746
25089808,45190,25089916,1642
25094808,45150,25094918,1658
25099808,45145,25099915,1674
25104808,45129,25104918,1712
25109808,45115,25109916,1660
25114808,45102,25114918,1627
25119808,45097,25119916,1627
25124808,45055,25124918,1723
25129808,45023,25129915,1673
25134808,45041,25134918,1664
25139808,45001,25139916,1727
25144808,45027,25144918,1734
25149808,45000,25149916,1653
25154808,44984,25154918,1645
25159808,44994,25159915,1725
25164808,45010,25164918,1719
25169808,44994,25169915,1663
25174808,44989,25174918,1695
25179808,44983,25179916,1703
25184808,44989,25184918,1735
25189808,45001,25189916,1711
25194808,45012,25194918,1695
25199808,45015,25199916,1770
25204808,45028,25204918,1805
25209808,45034,25209916,1814
25215808,45069,25215918,1805
25220808,45077,25220916,1817
25225808,45087,25225918,1850
25230808,45101,25230916,1767
25235808,45146,25235918,1728
25240808,45156,25240916,1809
25245808,45176,25245918,1797
25250808,45184,25250916,1778
25255808,45215,25255918,1685
25260808,45237,25260916,1738
25265808,45254,25265918,1746
25270808,45267,25270916,1728
25275808,45309,25275918,1738
25280808,45319,25280916,1710
25285808,45349,25285918,1851
25290808,45363,25290916,1712
25295808,45392,25295918,1747
25300808,45455,25300915,1745
25305808,45467,25305918,1844
25310808,45489,25310916,1823
25315808,45497,25315918,1818
25320808,45582,25320916,1897
25325808,45587,25325918,2135
25330808,45627,25330915,2573
25335808,45657,25335918,3632
25340808,45641,25340916,4095
25345808,45712,25345918,4095
25350808,45736,25350915,4095
25355808,45774,25355918,3184
25360808,45812,25360916,1760
25365808,45855,25365918,1445
25370808,45924,25370915,1627
25375808,45951,25375918,1732
25380808,45995,25380916,1788
25385808,45979,25385918,1725
25390808,46013,25390916,1711
25395808,46060,25395918,1671
25400808,46075,25400916,1670
25405808,46121,25405918,1744
25410808,46120,25410916,1687
25415808,46150,25415918,1709
25420808,46179,25420915,1764
25425808,46222,25425918,1826
25430808,46223,25430916,1753
25435808,46245,25435918,1738
25440808,46295,25440916,1743
25445808,46309,25445918,1817
25450808,46341,25450916,1807
25455808,46355,25455918,1773
25460808,46430,25460916,1840
25465808,46422,25465918,1854
25470808,46466,25470916,1808
25475808,46486,25475918,1872
25480808,46511,25480916,1842
25485808,46566,25485918,1930
25490808,46588,25490916,1872
25495808,46619,25495918,1877
25500808,46639,25500916,1885
25505808,46682,25505918,1965
25510808,46711,25510916,1952
25515808,46740,25515918,1982
25520808,46744,25520916,2013
25525808,46829,25525918,2095
25530808,46818,25530916,2075
25535808,46823,25535918,2111
25540808,46848,25540916,2158
25545808,46853,25545918,2185
25550808,46838,25550916,2142
25555808,46830,25555918,2155
25560808,46841,25560916,2187
25565808,46815,25565918,2247
25570808,46784,25570916,2172
25575808,46669,25575918,2151
25580808,46609,25580916,2162
25585808,46518,25585918,2193
25590808,46391,25590916,2128
25595808,46249,25595918,2078
25600808,46100,25600915,2064
25605808,45946,25605918,2113
25610808,45761,25610916,1969
25615808,45557,25615918,1899
25620808,45380,25620916,1825
25625808,45166,25625918,1874
25630808,45020,25630916,1776
25635808,44823,25635918,1698
25640808,44654,25640916,1691
25645808,44508,25645918,1697
25650808,44400,25650915,1618
25655808,44255,25655918,1568
25660808,44194,25660915,1628
25665808,44092,25665918,1657
25670808,43957,25670916,1566
25675808,43917,25675918,1558
25680808,43910,25680915,1606
25685808,43834,25685918,1602
25690808,43813,25690916,1576
25695808,43822,25695918,1583
25700808,43828,25700916,1616
25705808,43782,25705918,1680
25710808,43786,25710916,1674
25715808,43815,25715918,1673
25720808,43802,25720916,1648
25725808,43848,25725918,1694
25730808,43855,25730916,1625
25735808,43864,25735918,1639
25740808,43919,25740916,1658
25745808,43945,25745918,1695
25750808,43992,25750916,1659
25755808,43977,25755918,1669
25760808,44043,25760916,1646
25765808,44079,25765918,1711
25770808,44141,25770916,1687
25775808,44191,25775918,1626
25780808,44187,25780916,1649
25785808,44244,25785918,1696
25790808,44276,25790916,1655
25795808,44346,25795918,1616
25800808,44386,25800916,1653
25805808,44457,25805918,1705
25810808,44495,25810916,1647
25815808,44558,25815918,1625
25820808,44580,25820916,1664
25825808,44653,25825918,1687
25830808,44718,25830916,1593
25835808,44739,25835918,1643
25840808,44788,25840916,1637
25845808,44789,25845918,1689
25850808,44823,25850916,1616
25855808,44870,25855918,1655
25860808,44888,25860916,1635
25865808,44904,25865917,1735
25870808,44899,25870916,1622
25875808,44907,25875918,1655
25880808,44912,25880915,1696
25885808,44931,25885918,1739
25890808,44903,25890916,1671
25895808,44918,25895918,1678
25900808,44906,25900916,1649
25905808,44895,25905918,1741
25910808,44880,25910915,1711
25916808,44890,25916918,1713
25921808,44840,25921916,1733
25926808,44834,25926918,1795
25931808,44820,25931916,1669
25936808,44812,25936918,1714
25941808,44777,25941916,1735
25946808,44770,25946918,1758
25951808,44747,25951916,1729
25956808,44745,25956918,1725
25961808,44744,25961915,1727
25966808,44721,25966918,1769
25971808,44698,25971916,1673
25976808,44695,25976918,1703
25981808,44690,25981916,1731
25986808,44697,25986918,1776
25991808,44680,25991916,1712
25996808,44698,25996918,1687
26001808,44726,26001916,1753
26006808,44730,26006918,1794
26011808,44700,26011916,1706
26016808,44781,26016918,1738
26021808,44787,26021915,1734
26026808,44813,26026918,1765
26031808,44802,26031916,1745
26036808,44853,26036918,1745
26041808,44898,26041916,1718
26046808,44934,26046918,1791
26051808,44930,26051916,1789
26056808,44980,26056918,1791
26061808,44982,26061915,1811
26066808,45050,26066918,1927
26071808,45054,26071916,1872
26076808,45151,26076918,1874
26081808,45161,26081916,1845
26086808,45183,26086918,1873
26091808,45221,26091916,1837
26096808,45254,26096918,1808
26101808,45283,26101915,1803
26106808,45332,26106918,1879
26111808,45374,26111916,1796
26116808,45398,26116918,1820
26121808,45434,26121916,1792
26126808,45456,26126918,1854
26131808,45501,26131916,1778
26136808,45555,26136918,1820
26141808,45578,26141916,1838
26146808,45585,26146918,1886
26151808,45679,26151915,1755
26156808,45687,26156918,1835
26161808,45749,26161915,1840
26166808,45773,26166918,1869
26171808,45818,26171916,1840
26176808,45881,26176918,1834
26181808,45901,26181915,1901
26186808,45952,26186918,2234
26191808,46017,26191915,2890
26196808,46062,26196918,4095
26201808,46112,26201916,4095
26206808,46148,26206918,4095
26211808,46165,26211916,4095
26216808,46195,26216918,2832
26221808,46225,26221916,1690
26226808,46299,26226918,1576
26231808,46343,26231916,1717
26236808,46349,26236918,1824
26241808,46373,26241916,1865
26246808,46412,26246918,1825
26251808,46424,26251916,1739
26256808,46468,26256918,1732
26261808,46503,26261915,1763
26266808,46520,26266918,1766
26271808,46563,26271916,1764
26276808,46579,26276918,1775
26281808,46608,26281915,1723
26286808,46633,26286918,1795
26291808,46639,26291916,1783
26296808,46677,26296918,1752
26301808,46712,26301916,1818
26306808,46759,26306918,1824
26311808,46738,26311916,1785
26316808,46767,26316918,1840
26321808,46768,26321916,1842
26326808,46801,26326918,1878
26331808,46797,26331916,1809
26336808,46862,26336918,1856
26341808,46861,26341916,1902
26346808,46891,26346918,1913
26351808,46915,26351915,1918
26356808,46914,26356918,1919
26361808,46932,26361915,1987
26366808,46919,26366918,1997
26371808,46927,26371916,1962
26376808,46970,26376918,2000
26381808,46978,26381916,2066
26386808,47026,26386918,2096
26391808,47020,26391916,2096
26396808,47078,26396918,2128
26401808,47071,26401916,2175
26406808,47056,26406918,2243
26411808,47066,26411916,2215
26416808,47019,26416918,2192
26421808,47028,26421916,2242
26426808,46931,26426918,2267
26431808,46871,26431916,2187
26436808,46768,26436918,2196
26441808,46636,26441916,2221
26446808,46520,26446918,2277
26451808,46298,26451916,2157
26456808,46146,26456918,2173
26461808,45975,26461916,2131
26466808,45781,26466918,2115
26471808,45589,26471916,1991
26476808,45343,26476918,1983
26481808,45138,26481916,1942
26486808,44902,26486918,1858
26491808,44769,26491916,1771
26496808,44587,26496918,1735
26501808,44433,26501916,1705
26506808,44302,26506918,1699
26511808,44147,26511916,1642
26516808,44066,26516918,1616
26521808,43977,26521916,1639
26526808,43890,26526918,1666
26531808,43843,26531916,1599
26536808,43764,26536918,1615
26541808,43724,26541916,1616
26546808,43678,26546918,1664
26551808,43647,26551915,1611
26556808,43621,26556918,1594
26561808,43634,26561915,1646
26566808,43625,26566918,1721
26571808,43616,26571916,1628
26576808,43640,26576918,1671
26581808,43655,26581916,1655
26586808,43683,26586918,1680
26591808,43671,26591916,1637
26596808,43689,26596918,1639
26601808,43740,26601916,1652
26606808,43740,26606918,1744
26611808,43789,26611916,1694
26617808,43810,26617918,1669
26622808,43823,26622915,1680
26627808,43890,26627918,1717
26632808,43907,26632916,1644
26637808,43932,26637918,1648
26642808,43978,26642916,1653
26647808,44049,26647918,1693
26652808,44083,26652915,1658
26657808,44151,26657918,1682
26662808,44191,26662916,1665
26667808,44205,26667918,1692
26672808,44250,26672916,1641
26677808,44296,26677918,1639
26682808,44310,26682915,1667
26687808,44387,26687918,1723
26692808,44434,26692916,1655
26697808,44465,26697918,1644
26702808,44472,26702916,1721
26707808,44544,26707918,1699
26712808,44557,26712915,1612
26717808,44589,26717918,1617
26722808,44582,26722916,1632
26727808,44652,26727918,1663
26732808,44649,26732916,1643
26737808,44674,26737918,1659
26742808,44673,26742916,1697
26747808,44736,26747918,1726
26752808,44683,26752916,1621
26757808,44676,26757918,1677
26762808,44684,26762916,1668
26767808,44698,26767918,1690
26772808,44710,26772916,1674
26777808,44701,26777918,1681
26782808,44676,26782916,1713
26787808,44687,26787918,1759
26792808,44667,26792916,1666
26797808,44679,26797918,1708
26802808,44662,26802916,1754
26807808,44662,26807918,1741
26812808,44670,26812915,1670
26817808,44661,26817918,1689
26822808,44663,26822916,1713
26827808,44674,26827918,1771
26832808,44683,26832916,1712
26837808,44711,26837918,1664
26842808,44681,26842916,1683
26847808,44692,26847918,1769
26852808,44740,26852916,1740
26857808,44729,26857918,1713
26862808,44742,26862916,1765
26867808,44821,26867918,1719
26872808,44839,26872916,1666
26877808,44841,26877918,1746
26882808,44860,26882916,1769
26887808,44914,26887918,1798
26892808,44975,26892915,1747
26897808,44961,26897918,1763
26902808,45017,26902916,1777
26907808,45077,26907918,1799
26912808,45084,26912916,1769
26917808,45114,26917918,1783
26922808,45137,26922916,1762
26927808,45212,26927918,1802
26932808,45242,26932916,1747
26937808,45272,26937918,1744
26942808,45341,26942915,1744
26947808,45357,26947918,1815
26952808,45413,26952916,1717
26957808,45397,26957918,1703
26962808,45477,26962916,1770
26967808,45489,26967918,1806
26972808,45516,26972916,1824
26977808,45580,26977918,1805
26982808,45633,26982916,1841
26987808,45659,26987918,1919
26992808,45665,26992916,1893
26997808,45743,26997918,1895
27002808,45791,27002916,1917
27007808,45797,27007918,1893
27012808,45814,27012916,1855
27017808,45847,27017918,1839
27022808,45926,27022916,1887
27027808,45951,27027918,1923
27032808,45946,27032915,1791
27037808,45954,27037918,1829
27042808,46016,27042916,1872
27047808,46046,27047918,1875
27052808,46074,27052916,1791
27057808,46106,27057918,1808
27062808,46157,27062915,1842
27067808,46177,27067918,1811
27072808,46163,27072916,1837
27077808,46191,27077918,1801
27082808,46286,27082916,1830
27087808,46269,27087918,1892
27092808,46312,27092916,1836
27097808,46328,27097918,1910
27102808,46371,27102916,1869
27107808,46421,27107918,2065
27112808,46433,27112916,2506
27117808,46460,27117918,3568
27122808,46496,27122916,4095
27127808,46499,27127918,4095
27132808,46522,27132915,4095
27137808,46531,27137918,4048
27142808,46599,27142916,2305
27147808,46586,27147918,1616
27152808,46634,27152916,1554
27157808,46605,27157918,1774
27162808,46657,27162916,1857
27167808,46675,27167918,1875
27172808,46696,27172916,1773
27177808,46722,27177918,1764
27182808,46732,27182916,1729
27187808,46748,27187918,1783
27192808,46710,27192916,1763
27197808,46743,27197918,1746
27202808,46774,27202915,1805
27207808,46779,27207918,1796
27212808,46790,27212915,1773
27217808,46813,27217918,1779
27222808,46836,27222916,1807
27227808,46851,27227918,1859
27232808,46874,27232915,1841
27237808,46872,27237918,1826
27242808,46888,27242916,1863
27247808,46885,27247918,1882
27252808,46936,27252916,1836
27257808,46938,27257918,1821
27262808,46940,27262915,1926
27267808,46982,27267918,1934
27272808,46993,27272916,1925
27277808,46993,27277918,1935
27282808,47000,27282916,1945
27287808,47064,27287918,2021
27292808,47085,27292916,1982
27297808,47087,27297918,2003
27302808,47101,27302916,2063
27307808,47140,27307918,2097
27312808,47119,27312916,2123
27317808,47162,27317918,2112
27322808,47194,27322916,2171
27328808,47169,27328918,2194
27333808,47146,27333916,2191
27338808,47101,27338918,2205
27343808,47129,27343916,2259
27348808,47041,27348918,2285
27353808,46974,27353916,2192
27358808,46861,27358918,2194
27363808,46736,27363916,2255
27368808,46574,27368918,2267
27373808,46452,27373915,2149
27378808,46280,27378918,2149
27383808,46052,27383915,2195
27388808,45859,27388918,2112
27393808,45617,27393915,2034
27398808,45441,27398918,2032
27403808,45212,27403916,1968
27408808,45013,27408918,1958
27413808,44798,27413915,1855
27418808,44648,27418918,1808
27423808,44443,27423916,1744
27428808,44298,27428918,1751
27433808,44158,27433916,1673
27438808,44041,27438918,1680
27443808,43937,27443916,1679
27448808,43822,27448918,1663
27453808,43751,27453916,1629
27458808,43711,27458918,1569
27463808,43690,27463915,1643
27468808,43631,27468918,1646
27473808,43607,27473916,1579
27478808,43565,27478918,1611
27483808,43571,27483916,1649
27488808,43619,27488918,1669
27493808,43579,27493916,1651
27498808,43631,27498918,1678
27503808,43632,27503916,1657
27508808,43638,27508918,1653
27513808,43663,27513916,1654
27518808,43698,27518918,1652
27523808,43746,27523916,1683
27528808,43779,27528918,1712
27533808,43794,27533916,1632
27538808,43843,27538918,1625
27543808,43848,27543916,1713
27548808,43916,27548918,1715
27553808,43938,27553916,1655
27558808,44020,27558918,1678
27563808,44088,27563916,1695
27568808,44072,27568918,1679
27573808,44151,27573916,1619
27578808,44172,27578918,1647
27583808,44245,27583915,1718
27588808,44319,27588918,1687
27593808,44345,27593916,1616
27598808,44446,27598918,1651
27603808,44448,27603915,1681
27608808,44521,27608918,1710
27613808,44591,27613916,1650
27618808,44661,27618918,1648
27623808,44703,27623915,1653
27628808,44749,27628918,1687
27633808,44755,27633916,1631
27638808,44814,27638918,1606
27643808,44837,27643916,1657
27648808,44900,27648918,1693
27653808,44899,27653916,1599
27658808,44928,27658918,1635
27663808,44960,27663916,1689
27668808,44940,27668918,1667
27673808,44953,27673916,1641
27678808,44961,27678918,1619
27683808,44963,27683916,1649
27688808,44985,27688918,1685
27693808,44960,27693916,1617
27698808,44977,27698918,1648
27703808,44961,27703916,1715
27708808,44956,27708918,1705
27713808,44911,27713916,1680
27718808,44918,27718918,1690
27723808,44935,27723915,1684
27728808,44932,27728918,1726
27733808,44898,27733916,1655
27738808,44843,27738918,1701
27743808,44917,27743916,1701
27748808,44901,27748918,1706
27753808,44941,27753915,1683
27758808,44904,27758918,1706
27763808,44898,27763915,1742
27768808,44901,27768918,1742
27773808,44935,27773916,1698
27778808,44938,27778918,1659
27783808,44950,27783916,1762
27788808,44947,27788918,1756
27793808,44957,27793916,1729
27798808,44948,27798918,1698
27803808,44949,27803916,1707
27808808,44988,27808918,1726
27813808,45019,27813915,1662
27818808,45039,27818918,1683
27823808,45068,27823916,1744
27828808,45095,27828918,1789
27833808,45125,27833916,1750
27838808,45161,27838918,1762
27843808,45222,27843916,1746
27848808,45222,27848918,1728
27853808,45269,27853916,1705
27858808,45282,27858918,1779
27863808,45323,27863915,1809
27868808,45351,27868918,1791
27873808,45396,27873916,1744
27878808,45408,27878918,1740
27883808,45430,27883916,1815
27888808,45435,27888918,1858
27893808,45481,27893916,1744
27898808,45528,27898918,1787
27903808,45595,27903916,1808
27908808,45570,27908918,1811
27913808,45643,27913916,1809
27918808,45600,27918918,1765
27923808,45642,27923916,1794
27928808,45747,27928918,1840
27933808,45735,27933916,1763
27938808,45762,27938918,1728
27943808,45806,27943916,1801
27948808,45846,27948918,1792
27953808,45868,27953916,1774
27958808,45894,27958918,1797
27963808,45943,27963916,1840
27968808,45965,27968918,1894
27973808,46008,27973916,1903
27978808,46014,27978918,1901
27983808,46067,27983916,1962
27988808,46075,27988918,1904
27993808,46093,27993916,1867
27998808,46123,27998918,1865
28003808,46164,28003916,1875
28008808,46209,28008918,1879
28013808,46265,28013916,1767
28018808,46256,28018918,1807
28023808,46266,28023916,1840
28028808,46321,28028918,1857
28033808,46359,28033916,1801
28038808,46356,28038918,1839
28043808,46399,28043916,1820
28049808,46408,28049918,1883
28054808,46432,28054916,1785
28059808,46445,28059918,1817
28064808,46451,28064916,1885
28069808,46466,28069918,1840
28074808,46509,28074916,1867
28079808,46542,28079918,1866
28084808,46560,28084915,1919
28089808,46568,28089918,2006
28094808,46590,28094916,2282
28099808,46581,28099918,3146
28104808,46583,28104916,4095
28109808,46635,28109918,4095
28114808,46620,28114915,4095
28119808,46646,28119918,4095
28124808,46669,28124916,3175
28129808,46711,28129918,1840
28134808,46738,28134916,1489
28139808,46755,28139918,1698
28144808,46743,28144916,1855
28149808,46803,28149918,1792
28154808,46825,28154916,1762
28159808,46850,28159918,1680
28164808,46851,28164916,1744
28169808,46889,28169918,1725
28174808,46907,28174916,1729
28179808,46967,28179918,1729
28184808,46968,28184916,1744
28189808,46997,28189918,1745
28194808,47027,28194916,1761
28199808,47050,28199918,1767
28204808,47097,28204916,1793
28209808,47130,28209918,1791
28214808,47144,28214916,1760
28219808,47148,28219918,1732
28224808,47183,28224916,1821
28229808,47169,28229918,1841
28234808,47233,28234916,1769
28239808,47233,28239918,1845
28244808,47278,28244916,1879
28249808,47315,28249918,1881
28254808,47341,28254916,1871
28259808,47368,28259918,1887
28264808,47374,28264916,1915
28269808,47408,28269918,1947
28274808,47429,28274916,1925
28279808,47505,28279918,1961
28284808,47511,28284916,2007
28289808,47554,28289918,2007
28294808,47542,28294916,1991
28299808,47625,28299918,2059
28304808,47667,28304916,2095
28309808,47686,28309918,2099
28314808,47668,28314915,2128
28319808,47680,28319918,2186
28324808,47686,28324916,2219
28329808,47673,28329918,2221
28334808,47647,28334916,2158
28339808,47570,28339918,2210
28344808,47521,28344916,2229
28349808,47361,28349918,2202
28354808,47251,28354915,2157
28359808,47124,28359918,2174
28364808,46930,28364915,2159
28369808,46750,28369918,2106
28374808,46571,28374916,2027
28379808,46319,28379918,2000
28384808,46126,28384916,1951
28389808,45918,28389918,1936
28394808,45705,28394916,1833
28399808,45495,28399918,1777
28404808,45307,28404916,1798
28409808,45125,28409918,1712
28414808,44989,28414916,1652
28419808,44822,28419918,1582
28424808,44721,28424916,1649
28429808,44583,28429918,1611
28434808,44507,28434916,1599
28439808,44416,28439918,1553
28444808,44357,28444915,1606
28449808,44258,28449918,1617
28454808,44208,28454916,1543
28459808,44150,28459918,1600
28464808,44270,28464916,1624
28469808,44160,28469918,1626
28474808,44158,28474916,1596
28479808,44119,28479918,1584
28484808,44195,28484916,1671
28489808,44203,28489918,1681
28494808,44157,28494916,1584
28499808,44159,28499918,1595
28504808,44223,28504916,1695
28509808,44231,28509918,1663
28514808,44296,28514916,1649
28519808,44315,28519918,1641
28524808,44342,28524916,1690
28529808,44378,28529918,1711
28534808,44408,28534916,1645
28539808,44466,28539918,1651
28544808,44529,28544916,1639
28549808,44565,28549918,1701
28554808,44615,28554916,1633
28559808,44637,28559918,1643
28564808,44712,28564916,1703
28569808,44715,28569918,1639
28574808,44783,28574916,1648
28579808,44830,28579918,1596
28584808,44896,28584916,1669
28589808,44893,28589918,1623
28594808,44936,28594915,1571
28599808,44977,28599918,1649
28604808,45026,28604915,1648
28609808,45084,28609918,1658
28614808,45052,28614916,1671
28619808,45072,28619918,1664
28624808,45107,28624915,1690
28629808,45122,28629918,1698
28634808,45134,28634916,1634
28639808,45158,28639918,1643
28644808,45176,28644916,1697
28649808,45178,28649918,1671
28654808,45205,28654916,1614
28659808,45210,28659918,1652
28664808,45172,28664916,1659
28669808,45169,28669918,1678
28674808,45165,28674916,1616
28679808,45160,28679918,1696
28684808,45113,28684916,1718
28689808,45120,28689918,1686
28694808,45124,28694916,1691
28699808,45102,28699918,1661
28704808,45079,28704916,1712
28709808,45096,28709918,1724
28714808,45039,28714916,1667
28719808,45043,28719918,1672
28724808,45040,28724916,1737
28729808,45018,28729918,1754
28734808,45024,28734916,1675
28739808,44993,28739918,1651
28744808,45012,28744916,1717
28749808,44986,28749918,1766
28754808,44965,28754915,1699
28760808,45014,28760918,1708
28765808,45018,28765916,1775
28770808,45026,28770918,1743
28775808,45027,28775916,1712
28780808,45047,28780918,1746
28785808,45042,28785916,1827
28790808,45058,28790918,1740
28795808,45111,28795916,1700
28800808,45077,28800918,1776
28805808,45107,28805916,1777
28810808,45131,28810918,1754
28815808,45154,28815916,1727
28820808,45187,28820918,1760
28825808,45205,28825915,1823
28830808,45227,28830918,1743
28835808,45264,28835916,1743
28840808,45300,28840918,1723
28845808,45327,28845915,1822
28850808,45347,28850918,1835
28855808,45402,28855916,1745
28860808,45421,28860918,1773
28865808,45417,28865916,1839
28870808,45469,28870918,1813
28875808,45501,28875916,1769
28880808,45549,28880918,1813
28885808,45579,28885916,1845
28890808,45646,28890918,1764
28895808,45690,28895915,1749
28900808,45726,28900918,1763
28905808,45743,28905916,1818
28910808,45800,28910918,1836
28915808,45822,28915916,1823
28920808,45904,28920918,1814
28925808,45938,28925916,1919
28930808,45950,28930918,1894
28935808,46036,28935916,1874
28940808,46047,28940918,1907
28945808,46072,28945916,1953
28950808,46121,28950918,1871
28955808,46157,28955916,1829
28960808,46214,28960918,1845
28965808,46219,28965915,1869
28970808,46253,28970918,1858
28975808,46284,28975915,1782
28980808,46346,28980918,1810
28985808,46375,28985915,1860
28990808,46388,28990918,1855
28995808,46470,28995916,1807
29000808,46483,29000918,1824
29005808,46498,29005916,1870
29010808,46534,29010918,1810
29015808,46605,29015916,1840
29020808,46663,29020918,1830
29025808,46634,29025916,1847
29030808,46696,29030918,1859
29035808,46705,29035916,1890
29040808,46755,29040918,1865
29045808,46812,29045916,1959
29050808,46844,29050918,2256
29055808,46893,29055916,2888
29060808,46890,29060918,4095
29065808,46922,29065916,4095
29070808,46968,29070918,4095
29075808,46985,29075916,4095
29080808,47040,29080918,3199
29085808,47057,29085915,1923
29090808,47079,29090918,1556
29095808,47104,29095915,1657
29100808,47121,29100918,1790
29105808,47151,29105916,1828
29110808,47210,29110918,1751
29115808,47227,29115916,1712
29120808,47187,29120918,1747
29125808,47248,29125916,1749
29130808,47276,29130918,1707
29135808,47280,29135916,1727
29140808,47283,29140918,1756
29145808,47330,29145916,1827
29150808,47347,29150918,1756
29155808,47369,29155916,1777
29160808,47423,29160918,1765
29165808,47416,29165916,1807
29170808,47426,29170918,1841
29175808,47422,29175916,1824
29180808,47443,29180918,1793
29185808,47468,29185916,1854
29190808,47528,29190918,1886
29195808,47509,29195916,1839
29200808,47533,29200918,1811
29205808,47528,29205915,1930
29210808,47564,29210918,1930
29215808,47575,29215916,1906
29220808,47564,29220918,1914
29225808,47588,29225916,1968
29230808,47569,29230918,2003
29235808,47632,29235915,2006
29240808,47639,29240918,1976
29245808,47674,29245916,2095
29250808,47675,29250918,2061
29255808,47723,29255915,2095
29260808,47738,29260918,2146
29265808,47772,29265916,2169
29270808,47786,29270918,2180
29275808,47802,29275916,2183
29280808,47789,29280918,2214
29285808,47773,29285916,2227
29290808,47724,29290918,2224
29295808,47665,29295916,2169
29300808,47609,29300918,2192
29305808,47549,29305916,2210
29310808,47399,29310918,2208
29315808,47260,29315916,2153
29320808,47091,29320918,2122
29325808,46950,29325916,2166
29330808,46764,29330918,2129
29335808,46514,29335916,1990
29340808,46285,29340918,1951
29345808,46081,29345916,1967
29350808,45891,29350918,1884
29355808,45695,29355916,1810
29360808,45515,29360918,1783
29365808,45330,29365915,1757
29370808,45156,29370918,1699
29375808,44991,29375916,1658
29380808,44849,29380918,1589
29385808,44732,29385915,1665
29390808,44608,29390918,1615
29395808,44530,29395916,1606
29400808,44451,29400918,1587
29405808,44388,29405915,1622
29410808,44324,29410918,1584
29415808,44285,29415916,1589
29420808,44221,29420918,1607
29425808,44208,29425916,1648
29430808,44208,29430918,1633
29435808,44195,29435916,1584
29440808,44235,29440918,1535
29445808,44199,29445916,1648
29450808,44235,29450918,1629
29455808,44226,29455916,1587
29460808,44267,29460918,1647
29465808,44261,29465916,1675
29470808,44328,29470918,1651
29476808,44356,29476916,1650
29481808,44379,29481918,1669
29486808,44438,29486916,1695
29491808,44453,29491918,1680
29496808,44499,29496916,1663
29501808,44542,29501918,1669
29506808,44588,29506916,1667
29511808,44608,29511918,1642
29516808,44641,29516916,1635
29521808,44696,29521918,1691
29526808,44723,29526916,1647
29531808,44804,29531918,1662
29536808,44837,29536916,1579
29541808,44899,29541918,1673
29546808,44908,29546916,1682
29551808,44973,29551918,1654
29556808,45033,29556916,1649
29561808,45063,29561918,1687
29566808,45107,29566916,1671
29571808,45134,29571918,1663
29576808,45158,29576916,1645
29581808,45167,29581918,1675
29586808,45237,29586916,1671
29591808,45277,29591918,1719
29596808,45258,29596916,1675
29601808,45286,29601918,1662
29606808,45315,29606916,1725
29611808,45342,29611918,1639
29616808,45343,29616916,1625
29621808,45348,29621918,1635
29626808,45335,29626916,1707
29631808,45352,29631918,1733
29636808,45379,29636916,1621
29641808,45373,29641918,1695
29646808,45397,29646916,1699
29651808,45369,29651918,1707
29656808,45355,29656916,1634
29661808,45354,29661918,1633
29666808,45330,29666915,1703
29671808,45323,29671918,1735
29676808,45323,29676915,1675
29681808,45302,29681918,1702
29686808,45310,29686916,1705
29691808,45301,29691918,1755
29696808,45307,29696916,1715
29701808,45302,29701918,1713
29706808,45328,29706916,1747
29711808,45344,29711918,1776
29716808,45299,29716916,1717
29721808,45341,29721918,1710
29726808,45373,29726916,1770
29731808,45405,29731918,1723
29736808,45429,29736916,1745
29741808,45428,29741918,1715
29746808,45456,29746916,1761
29751808,45502,29751918,1758
29756808,45529,29756916,1709
29761808,45579,29761918,1745
29766808,45633,29766916,1799
29771808,45609,29771918,1751
29776808,45652,29776915,1709
29781808,45713,29781918,1766
29786808,45758,29786916,1799
29791808,45758,29791918,1805
29796808,45792,29796916,1700
29801808,45867,29801918,1787
29806808,45873,29806916,1840
29811808,45885,29811918,1791
29816808,45936,29816916,1749
29821808,45959,29821918,1739
29826808,46044,29826916,1850
29831808,46065,29831918,1812
29836808,46093,29836915,1727
29841808,46135,29841918,1789
29846808,46146,29846916,1840
29851808,46180,29851918,1823
29856808,46241,29856916,1796
29861808,46275,29861918,1814
29866808,46310,29866916,1865
29871808,46344,29871918,1763
29876808,46391,29876915,1761
29881808,46399,29881918,1823
29886808,46463,29886916,1847
29891808,46454,29891918,1814
29896808,46503,29896916,1794
29901808,46517,29901918,1895
29906808,46583,29906916,1921
29911808,46586,29911918,1910
29916808,46680,29916915,1894
29921808,46665,29921918,1909
29926808,46700,29926915,1958
29931808,46714,29931918,1904
29936808,46752,29936916,1865
29941808,46767,29941918,1837
29946808,46857,29946916,1883
29951808,46815,29951918,1862
29956808,46855,29956916,1838
29961808,46873,29961918,1849
29966808,46967,29966916,1894
29971808,46947,29971918,1849
29976808,46988,29976915,1835
29981808,47012,29981918,1776
29986808,47072,29986916,1851
29991808,47092,29991918,1794
29996808,47134,29996916,1801
30001808,47139,30001918,1843
30006808,47171,30006916,1910
30011808,47179,30011918,1875
30016808,47193,30016916,1915
30021808,47224,30021918,1886
30026808,47253,30026916,1953
30031808,47259,30031918,2199
30036808,47294,30036915,2823
30041808,47283,30041918,4095
30046808,47302,30046915,4095
30051808,47307,30051918,4095
30056808,47334,30056916,4095
30061808,47339,30061918,3414
30066808,47367,30066916,2001
30071808,47400,30071918,1546
30076808,47394,30076916,1705
30081808,47432,30081918,1812
30086808,47447,30086916,1862
30091808,47465,30091918,1759
30096808,47478,30096916,1759
30101808,47508,30101918,1733
30106808,47534,30106916,1785
30111808,47528,30111918,1770
30116808,47557,30116916,1680
30121808,47577,30121918,1766
30126808,47593,30126916,1802
30131808,47571,30131918,1735
30136808,47605,30136916,1765
30141808,47656,30141918,1801
30146808,47661,30146916,1844
30151808,47649,30151918,1823
30156808,47660,30156916,1788
30161808,47719,30161918,1801
30166808,47717,30166916,1872
30171808,47763,30171918,1831
30176808,47768,30176916,1847
30182808,47758,30182918,1853
30187808,47802,30187916,1895
30192808,47782,30192918,1879
30197808,47824,30197915,1904
30202808,47841,30202918,1967
30207808,47870,30207916,2001
30212808,47865,30212918,1974
30217808,47889,30217916,2006
30222808,47914,30222918,2003
30227808,47917,30227916,2094
30232808,47916,30232918,2047
30237808,47946,30237915,2039
30242808,47948,30242918,2127
30247808,47980,30247916,2185
30252808,47980,30252918,2195
30257808,47999,30257916,2210
30262808,47989,30262918,2211
30267808,47993,30267916,2256
30272808,47971,30272918,2229
30277808,47885,30277916,2207
30282808,47792,30282918,2233
30287808,47742,30287916,2259
30292808,47609,30292918,2256
30297808,47445,30297916,2166
30302808,47300,30302918,2164
30307808,47141,30307916,2154
30312808,46933,30312918,2127
30317808,46683,30317916,2047
30322808,46485,30322918,2012
30327808,46268,30327916,1988
30332808,46080,30332918,1879
30337808,45881,30337915,1808
30342808,45717,30342918,1773
30347808,45495,30347916,1779
30352808,45309,30352918,1675
30357808,45148,30357915,1618
30362808,45003,30362918,1652
30367808,44890,30367916,1703
30372808,44754,30372918,1579
30377808,44692,30377916,1611
30382808,44611,30382918,1615
30387808,44542,30387916,1623
30392808,44474,30392918,1559
30397808,44392,30397916,1615
30402808,44411,30402918,1616
30407808,44367,30407916,1616
30412808,44366,30412917,1596
30417808,44333,30417915,1570
30422808,44388,30422918,1589
30427808,44377,30427915,1633
30432808,44418,30432918,1611
30437808,44429,30437916,1570
30442808,44478,30442918,1609
30447808,44472,30447916,1693
30452808,44592,30452918,1623
30457808,44575,30457916,1586
30462808,44605,30462918,1654
30467808,44637,30467916,1712
30472808,44703,30472918,1599
30477808,44773,30477916,1649
30482808,44804,30482918,1653
30487808,44870,30487916,1669
30492808,44907,30492918,1645
30497808,44976,30497915,1653
30502808,44996,30502918,1617
30507808,45024,30507916,1687
30512808,45072,30512918,1584
30517808,45171,30517916,1611
30522808,45173,30522918,1603
30527808,45264,30527916,1665
30532808,45269,30532918,1635
30537808,45345,30537916,1603
30542808,45354,30542918,1607
30547808,45445,30547916,1638
30552808,45491,30552918,1595
30557808,45533,30557916,1603
30562808,45548,30562918,1663
30567808,45604,30567915,1680
30572808,45566,30572917,1629
30577808,45611,30577916,1639
30582808,45612,30582918,1663
30587808,45677,30587915,1690
30592808,45640,30592918,1646
30597808,45684,30597916,1595
30602808,45643,30602918,1610
30607808,45669,30607916,1687
30612808,45710,30612918,1673
30617808,45659,30617916,1610
30622808,45660,30622918,1669
30627808,45612,30627916,1729
30632808,45631,30632918,1648
30637808,45618,30637915,1648
30642808,45587,30642918,1662
30647808,45597,30647915,1712
30652808,45556,30652918,1661
30657808,45597,30657916,1634
30662808,45552,30662918,1681
30667808,45555,30667916,1735
30672808,45559,30672918,1680
30677808,45540,30677916,1643
30682808,45576,30682918,1680
30687808,45555,30687916,1713
30692808,45532,30692918,1696
30697808,45532,30697916,1654
30702808,45514,30702918,1730
30707808,45578,30707916,1739
30712808,45508,30712918,1680
30717808,45549,30717916,1669
30722808,45534,30722918,1711
30727808,45597,30727916,1770
30732808,45575,30732918,1718
30737808,45605,30737916,1708
30742808,45609,30742918,1664
30747808,45630,30747915,1790
30752808,45665,30752918,1712
30757808,45712,30757916,1747
30762808,45729,30762918,1715
30767808,45729,30767916,1762
30772808,45754,30772918,1773
30777808,45799,30777916,1747
30782808,45845,30782918,1715
30787808,45838,30787916,1801
30792808,45876,30792918,1712
30797808,45901,30797916,1703
30802808,45924,30802918,1708
30807808,45955,30807916,1803
30812808,45991,30812918,1766
30817808,46035,30817916,1751
30822808,46048,30822918,1763
30827808,46080,30827916,1777
30832808,46112,30832918,1797
30837808,46139,30837915,1737
30842808,46186,30842918,1763
30847808,46213,30847915,1822
30852808,46269,30852918,1792
30857808,46263,30857916,1746
30862808,46294,30862918,1753
30867808,46335,30867916,1834
30872808,46355,30872918,1791
30878808,46393,30878916,1765
30883808,46442,30883918,1771
30888808,46459,30888916,1804
30893808,46513,30893918,1771
30898808,46535,30898916,1772
30903808,46526,30903918,1858
30908808,46552,30908916,1895
30913808,46586,30913918,1826
30918808,46643,30918916,1886
30923808,46646,30923918,1893
30928808,46685,30928916,1965
30933808,46719,30933918,1888
30938808,46739,30938916,1883
30943808,46762,30943918,1895
30948808,46803,30948916,1931
30953808,46818,30953918,1875
30958808,46835,30958916,1839
30963808,46876,30963918,1875
30968808,46908,30968916,1929
30973808,46927,30973918,1857
30978808,46958,30978916,1834
30983808,46988,30983918,1866
30988808,47015,30988915,1907
30993808,47033,30993918,1830
30998808,47068,30998916,1849
31003808,47119,31003918,1859
31008808,47166,31008916,1902
31013808,47147,31013918,1836
31018808,47194,31018915,1808
31023808,47197,31023918,1885
31028808,47262,31028916,1928
31033808,47284,31033918,1893
31038808,47342,31038916,1922
31043808,47343,31043918,2063
31048808,47393,31048916,2768
31053808,47389,31053918,3895
31058808,47409,31058916,4095
31063808,47456,31063918,4095
31068808,47472,31068916,4095
31073808,47479,31073918,3583
31078808,47538,31078916,2054
31083808,47571,31083918,1502
31088808,47571,31088916,1721
31093808,47634,31093918,1789
31098808,47637,31098916,1825
31103808,47672,31103918,1835
31108808,47688,31108915,1842
31113808,47710,31113918,1712
31118808,47694,31118916,1681
31123808,47766,31123918,1744
31128808,47817,31128915,1807
31133808,47848,31133918,1721
31138808,47845,31138916,1745
31143808,47890,31143918,1746
31148808,47950,31148916,1776
31153808,47989,31153918,1756
31158808,48016,31158915,1815
31163808,48028,31163918,1770
31168808,48071,31168916,1833
31173808,48108,31173918,1768
31178808,48117,31178916,1817
31183808,48155,31183918,1872
31188808,48185,31188916,1903
31193808,48223,31193918,1833
31198808,48252,31198916,1873
31203808,48263,31203918,1917
31208808,48308,31208916,1968
31213808,48295,31213918,1930
31218808,48319,31218916,1942
31223808,48345,31223918,1973
31228808,48396,31228916,2038
31233808,48437,31233918,2000
31238808,48428,31238916,2000
31243808,48456,31243918,2047
31248808,48498,31248915,2113
31253808,48497,31253918,2096
31258808,48554,31258915,2127
31263808,48575,31263918,2171
31268808,48589,31268916,2241
31273808,48583,31273918,2220
31278808,48574,31278915,2235
31283808,48548,31283918,2251
31288808,48488,31288916,2272
31293808,48403,31293918,2239
31298808,48313,31298916,2229
31303808,48225,31303918,2242
31308808,48125,31308916,2224
31313808,47956,31313918,2160
31318808,47710,31318915,2129
31323808,47546,31323918,2086
31328808,47323,31328916,2090
31333808,47131,31333918,2055
31338808,46892,31338916,1897
31343808,46697,31343918,1911
31348808,46510,31348915,1920
31353808,46297,31353918,1773
31358808,46097,31358916,1774
31363808,45920,31363918,1729
31368808,45781,31368916,1766
31373808,45615,31373918,1664
31378808,45475,31378915,1642
31383808,45358,31383918,1642
31388808,45226,31388916,1635
31393808,45203,31393918,1566
31398808,45092,31398916,1551
31403808,44996,31403918,1610
31408808,44948,31408915,1611
31413808,44906,31413918,1595
31418808,44892,31418915,1568
31423808,44858,31423917,1604
31428808,44873,31428916,1648
31433808,44823,31433918,1581
31438808,44812,31438916,1633
31443808,44804,31443918,1600
31448808,44828,31448916,1647
31453808,44847,31453918,1626
31458808,44880,31458915,1600
31463808,44895,31463918,1632
31468808,44922,31468915,1714
31473808,44971,31473918,1623
31478808,44965,31478916,1626
31483808,45023,31483918,1659
31488808,45035,31488916,1699
31493808,45085,31493918,1613
31498808,45140,31498916,1616
31503808,45185,31503918,1682
31508808,45202,31508916,1657
31513808,45207,31513918,1601
31518808,45264,31518916,1630
31523808,45343,31523918,1653
31528808,45364,31528916,1663
31533808,45415,31533918,1626
31538808,45470,31538915,1613
31543808,45515,31543918,1635
31548808,45537,31548916,1669
31553808,45615,31553918,1604
31558808,45634,31558915,1584
31563808,45674,31563918,1671
31569808,45682,31569916,1680
31574808,45724,31574918,1616
31579808,45746,31579916,1643
31584808,45768,31584918,1675
31589808,45789,31589916,1693
31594808,45818,31594918,1616
31599808,45846,31599916,1585
31604808,45832,31604918,1641
31609808,45850,31609916,1703
31614808,45856,31614918,1636
31619808,45876,31619916,1609
31624808,45879,31624918,1677
31629808,45839,31629916,1723
31634808,45845,31634918,1616
31639808,45841,31639916,1675
31644808,45823,31644918,1655
31649808,45825,31649915,1709
31654808,45874,31654918,1673
31659808,45821,31659916,1629
31664808,45821,31664918,1647
31669808,45791,31669916,1706
31674808,45777,31674918,1647
31679808,45789,31679915,1663
31684808,45771,31684918,1648
31689808,45779,31689916,1721
31694808,45816,31694918,1631
31699808,45801,31699915,1644
31704808,45785,31704918,1707
31709808,45781,31709916,1701
31714808,45789,31714918,1693
31719808,45842,31719916,1701
31724808,45868,31724918,1693
31729808,45834,31729916,1776
31734808,45912,31734918,1726
31739808,45908,31739916,1654
31744808,45943,31744918,1695
31749808,45950,31749916,1743
31754808,45935,31754918,1697
31759808,45979,31759916,1713
31764808,46028,31764918,1744
31769808,46031,31769916,1739
31774808,46061,31774918,1699
31779808,46101,31779916,1719
31784808,46130,31784918,1725
31789808,46157,31789916,1738
31794808,46225,31794918,1714
31799808,46210,31799916,1731
31804808,46286,31804918,1717
31809808,46345,31809916,1740
31814808,46372,31814918,1755
31819808,46439,31819916,1717
31824808,46422,31824918,1730
31829808,46465,31829916,1801
31834808,46543,31834918,1709
31839808,46606,31839916,1762
31844808,46650,31844918,1767
31849808,46701,31849916,1790
31854808,46730,31854918,1750
31859808,46768,31859916,1755
31864808,46848,31864918,1825
31869808,46832,31869916,1811
31874808,46930,31874918,1791
31879808,46948,31879916,1776
31884808,46976,31884918,1840
31889808,47017,31889915,1875
31894808,47044,31894918,1775
31899808,47080,31899916,1753
31904808,47141,31904918,1840
31909808,47192,31909916,1858
31914808,47231,31914918,1830
31919808,47253,31919915,1807
31924808,47291,31924918,1922
31929808,47304,31929916,1933
31934808,47317,31934918,1851
31939808,47390,31939916,1885
31944808,47383,31944918,1905
31949808,47486,31949916,1934
31954808,47525,31954918,1882
31959808,47521,31959916,1821
31964808,47544,31964918,1807
31969808,47553,31969916,1866
31974808,47619,31974918,1821
31979808,47637,31979916,1841
31984808,47625,31984918,1847
31989808,47673,31989916,1898
31994808,47697,31994918,1851
31999808,47770,31999916,1799
32004808,47730,32004918,1872
32009808,47758,32009916,1841
32014808,47771,32014918,1840
32019808,47797,32019916,1823
32024808,47828,32024918,1874
32029808,47873,32029916,1925
32034808,47885,32034918,1871
32039808,47938,32039916,1841
32044808,47928,32044918,1971
32049808,47922,32049915,2434
32054808,47958,32054918,3210
32059808,47987,32059916,4095
32064808,48033,32064918,4095
32069808,48061,32069915,4095
32074808,48111,32074918,4095
32079808,48096,32079916,2965
32084808,48144,32084918,1808
32089808,48145,32089916,1535
32094808,48174,32094918,1685
32099808,48154,32099916,1806
32104808,48198,32104918,1774
32109808,48205,32109915,1776
32114808,48225,32114918,1744
32119808,48250,32119915,1689
32124808,48229,32124918,1712
32129808,48217,32129915,1812
32134808,48265,32134918,1730
32139808,48277,32139916,1698
32144808,48266,32144918,1762
32149808,48307,32149916,1807
32154808,48328,32154918,1743
32159808,48353,32159915,1711
32164808,48345,32164918,1772
32169808,48394,32169916,1828
32174808,48371,32174918,1773
32179808,48399,32179916,1791
32184808,48446,32184918,1845
32189808,48427,32189916,1895
32194808,48456,32194918,1885
32199808,48507,32199916,1812
32204808,48495,32204918,1863
32209808,48533,32209916,1959
32214808,48547,32214918,1891
32219808,48558,32219916,1906
32224808,48575,32224918,1957
32229808,48562,32229915,2045
32234808,48605,32234918,1948
32239808,48611,32239916,1968
32244808,48608,32244918,1995
32249808,48664,32249916,2107
32255808,48688,32255918,2033
32260808,48700,32260916,2126
32265808,48699,32265918,2155
32270808,48713,32270916,2199
32275808,48722,32275918,2171
32280808,48741,32280916,2205
32285808,48719,32285918,2224
32290808,48696,32290915,2270
32295808,48621,32295918,2221
32300808,48577,32300916,2256
32305808,48456,32305918,2250
32310808,48394,32310916,2230
32315808,48255,32315918,2206
32320808,48130,32320916,2125
32325808,47967,32325917,2160
32330808,47780,32330916,2164
32335808,47613,32335918,2046
32340808,47388,32340916,1967
32345808,47229,32345918,1925
32350808,47042,32350916,1887
32355808,46803,32355918,1731
32360808,46622,32360916,1713
32365808,46464,32365918,1744
32370808,46281,32370916,1657
32375808,46129,32375918,1600
32380808,46015,32380916,1619
32385808,45933,32385918,1579
32390808,45770,32390916,1642
32395808,45682,32395918,1530
32400808,45596,32400916,1526
32405808,45554,32405918,1558
32410808,45481,32410916,1589
32415808,45487,32415918,1550
32420808,45438,32420916,1531
32425808,45430,32425918,1575
32430808,45380,32430916,1597
32435808,45392,32435917,1597
32440808,45394,32440916,1552
32445808,45379,32445918,1617
32450808,45413,32450916,1647
32455808,45444,32455918,1569
32460808,45438,32460915,1575
32465808,45493,32465918,1654
32470808,45530,32470916,1616
32475808,45537,32475918,1599
32480808,45592,32480916,1621
32485808,45636,32485918,1645
32490808,45690,32490916,1662
32495808,45749,32495918,1589
32500808,45814,32500916,1600
32505808,45837,32505918,1627
32510808,45886,32510916,1643
32515808,45948,32515918,1617
32520808,45989,32520915,1597
32525808,46088,32525918,1673
32530808,46121,32530915,1664
32535808,46224,32535918,1590
32540808,46269,32540916,1636
32545808,46289,32545918,1646
32550808,46345,32550916,1649
32555808,46393,32555918,1611
32560808,46467,32560915,1648
32565808,46507,32565918,1664
32570808,46546,32570916,1670
32575808,46583,32575918,1618
32580808,46604,32580916,1594
32585808,46658,32585918,1664
32590808,46684,32590916,1644
32595808,46734,32595918,1581
32600808,46742,32600915,1616
32605808,46742,32605918,1627
32610808,46767,32610916,1682
32615808,46768,32615918,1680
32620808,46774,32620915,1657
32625808,46761,32625918,1669
32630808,46782,32630916,1687
32635808,46795,32635918,1623
32640808,46781,32640916,1611
32645808,46743,32645918,1657
32650808,46724,32650915,1689
32655808,46750,32655918,1644
32660808,46759,32660916,1651
32665808,46714,32665918,1672
32670808,46707,32670916,1763
32675808,46643,32675918,1712
32680808,46657,32680916,1689
32685808,46636,32685918,1694
32690808,46642,32690916,1709
32695808,46603,32695918,1631
32700808,46591,32700916,1699
32705808,46595,32705918,1746
32710808,46618,32710916,1776
32715808,46589,32715918,1659
32720808,46624,32720916,1698
32725808,46603,32725918,1747
32730808,46624,32730916,1776
32735808,46598,32735918,1701
32740808,46576,32740916,1743
32745808,46625,32745918,1759
32750808,46665,32750916,1763
32755808,46689,32755918,1680
32760808,46703,32760916,1726
32765808,46696,32765918,1735
32770808,46731,32770916,1797
32775808,46731,32775917,1776
32780808,46762,32780916,1749
32785808,46743,32785918,1809
32790808,46811,32790915,1805
32795808,46843,32795918,1722
32800808,46869,32800916,1747
32805808,46878,32805918,1775
32810808,46876,32810916,1813
32815808,46909,32815918,1737
32820808,46912,32820916,1721
32825808,46937,32825918,1793
32830808,46987,32830916,1818
32835808,47014,32835918,1792
32840808,47045,32840916,1834
32845808,47081,32845918,1835
32850808,47113,32850916,1861
32855808,47105,32855918,1827
32860808,47149,32860916,1863
32865808,47194,32865918,1888
32870808,47212,32870916,1966
32875808,47247,32875918,1859
32880808,47272,32880915,1839
32885808,47298,32885918,1891
32890808,47336,32890916,1904
32895808,47351,32895918,1815
32900808,47395,32900916,1759
32905808,47452,32905918,1840
32910808,47440,32910915,1840
32915808,47454,32915918,1803
32920808,47506,32920916,1794
32925808,47521,32925918,1785
32930808,47557,32930915,1808
32935808,47573,32935918,1787
32940808,47596,32940916,1819
32946808,47616,32946918,1868
32951808,47627,32951916,1860
32956808,47672,32956918,1829
32961808,47698,32961915,1863
32966808,47725,32966918,1931
32971808,47725,32971916,1954
32976808,47776,32976918,2082
32981808,47755,32981915,2621
32986808,47789,32986918,3827
32991808,47800,32991916,4095
32996808,47824,32996918,4095
33001808,47845,33001916,4095
33006808,47870,33006918,3729
33011808,47872,33011915,2086
33016808,47907,33016918,1498
33021808,47930,33021915,1663
33026808,47979,33026918,1840
33031808,47952,33031916,1867
33036808,47973,33036918,1762
33041808,48005,33041916,1765
33046808,48031,33046918,1725
33051808,48061,33051916,1713
33056808,48061,33056918,1699
33061808,48086,33061915,1690
33066808,48103,33066918,1767
33071808,48113,33071916,1771
33076808,48185,33076918,1771
33081808,48163,33081916,1790
33086808,48199,33086918,1774
33091808,48228,33091916,1840
33096808,48262,33096918,1754
33101808,48318,33101916,1812
33106808,48324,33106918,1826
33111808,48343,33111916,1856
33116808,48351,33116918,1837
33121808,48360,33121916,1853
33126808,48383,33126918,1893
33131808,48421,33131916,1906
33136808,48425,33136918,1853
33141808,48438,33141916,1919
33146808,48489,33146918,1996
33151808,48475,33151916,2013
33156808,48524,33156918,1931
33161808,48543,33161916,1948
33166808,48526,33166918,2029
33171808,48591,33171915,2064
33176808,48622,33176918,2046
33181808,48642,33181916,2118
33186808,48672,33186918,2129
33191808,48722,33191916,2139
33196808,48712,33196918,2161
33201808,48750,33201916,2171
33206808,48796,33206918,2258
33211808,48759,33211916,2245
33216808,48751,33216918,2263
33221808,48799,33221916,2251
33226808,48707,33226918,2256
33231808,48686,33231916,2294
33236808,48600,33236918,2189
33241808,48513,33241916,2240
33246808,48427,33246918,2229
33251808,48313,33251916,2195
33256808,48146,33256918,2079
33261808,48003,33261916,2043
33266808,47804,33266918,2063
33271808,47617,33271916,1957
33276808,47411,33276918,1845
33281808,47242,33281915,1837
33286808,47056,33286918,1797
33291808,46869,33291916,1733
33296808,46688,33296918,1658
33301808,46554,33301916,1622
33306808,46383,33306918,1645
33311808,46271,33311916,1601
33316808,46130,33316918,1531
33321808,46051,33321916,1584
33326808,45929,33326918,1616
33331808,45868,33331916,1606
33336808,45787,33336918,1585
33341808,45737,33341916,1614
33346808,45685,33346918,1616
33351808,45708,33351916,1615
33356808,45638,33356918,1597
33361808,45635,33361915,1622
33366808,45593,33366918,1633
33371808,45631,33371916,1671
33376808,45643,33376918,1616
33381808,45591,33381916,1601
33386808,45598,33386918,1657
33391808,45613,33391916,1682
33396808,45596,33396918,1599
33401808,45697,33401915,1646
33406808,45713,33406918,1713
33411808,45773,33411916,1678
33416808,45772,33416918,1583
33421808,45795,33421916,1647
33426808,45843,33426918,1689
33431808,45921,33431916,1663
33436808,45945,33436918,1602
33441808,45986,33441916,1646
33446808,46029,33446918,1647
33451808,46075,33451916,1703
33456808,46090,33456918,1635
33461808,46155,33461916,1630
33466808,46196,33466918,1675
33471808,46265,33471915,1681
33476808,46265,33476918,1648
33481808,46309,33481916,1626
33486808,46343,33486918,1638
33491808,46390,33491916,1707
33496808,46464,33496918,1572
33501808,46460,33501915,1629
33506808,46437,33506918,1699
33511808,46513,33511916,1689
33516808,46490,33516918,1631
33521808,46540,33521916,1665
33526808,46599,33526918,1657
33531808,46604,33531915,1686
33536808,46633,33536918,1605
33541808,46627,33541916,1639
33546808,46620,33546918,1637
33551808,46620,33551916,1711
33556808,46619,33556918,1638
33561808,46601,33561916,1630
33566808,46597,33566918,1701
33571808,46594,33571916,1711
33576808,46582,33576918,1648
33581808,46553,33581916,1679
33586808,46532,33586918,1681
33591808,46543,33591915,1732
33596808,46509,33596918,1648
33601808,46525,33601916,1663
33606808,46507,33606918,1702
33611808,46466,33611916,1722
33616808,46459,33616918,1659
33621808,46428,33621916,1666
33626808,46448,33626918,1700
33631808,46433,33631916,1723
33636808,46427,33636918,1680
33642808,46409,33642916,1694
33647808,46408,33647918,1732
33652808,46428,33652916,1751
33657808,46398,33657918,1729
33662808,46404,33662915,1727
33667808,46424,33667918,1750
33672808,46398,33672915,1754
33677808,46418,33677918,1719
33682808,46397,33682916,1770
33687808,46425,33687918,1806
33692808,46434,33692916,1733
33697808,46454,33697918,1745
33702808,46461,33702916,1723
33707808,46491,33707918,1799
33712808,46479,33712915,1775
33717808,46516,33717918,1773
33722808,46543,33722916,1758
33727808,46566,33727918,1796
33732808,46612,33732916,1824
33737808,46625,33737918,1773
33742808,46648,33742916,1775
33747808,46716,33747918,1794
33752808,46723,33752915,1821
33757808,46738,33757917,1711
33762808,46781,33762916,1761
33767808,46841,33767918,1795
33772808,46874,33772916,1795
33777808,46891,33777918,1753
33782808,46916,33782915,1839
33787808,46966,33787918,1875
33792808,46996,33792916,1894
33797808,47073,33797918,1859
33802808,47078,33802915,1927
33807808,47152,33807918,1959
33812808,47193,33812916,1913
33817808,47200,33817918,1853
33822808,47244,33822915,1865
33827808,47282,33827918,1895
33832808,47290,33832916,1886
33837808,47324,33837918,1780
33842808,47396,33842915,1833
33847808,47399,33847918,1872
33852808,47430,33852916,1847
33857808,47470,33857918,1827
33862808,47507,33862915,1851
33867808,47560,33867918,1817
33872808,47605,33872916,1885
33877808,47631,33877918,1803
33882808,47668,33882916,1805
33887808,47748,33887918,1872
33892808,47750,33892916,1854
33897808,47809,33897918,1837
33902808,47817,33902916,1875
33907808,47861,33907918,1899
33912808,47910,33912916,1935
33917808,47967,33917918,2197
33922808,47999,33922916,2943
33927808,48035,33927918,4095
33932808,48059,33932916,4095
33937808,48086,33937918,4095
33942808,48109,33942916,4095
33947808,48156,33947918,2978
33952808,48216,33952916,1791
33957808,48234,33957918,1503
33962808,48218,33962916,1705
33967808,48265,33967918,1846
33972808,48302,33972916,1892
33977808,48327,33977918,1763
33982808,48330,33982916,1759
33987808,48362,33987918,1712
33992808,48417,33992916,1760
33997808,48433,33997918,1777
34002808,48471,34002916,1710
34007808,48477,34007918,1779
34012808,48493,34012916,1792
34017808,48520,34017918,1744
34022808,48512,34022916,1785
34027808,48553,34027918,1813
34032808,48588,34032916,1817
34037808,48588,34037918,1778
34042808,48608,34042916,1809
34047808,48607,34047918,1866
34052808,48660,34052916,1844
34057808,48658,34057918,1841
34062808,48625,34062916,1830
34067808,48671,34067918,1932
34072808,48752,34072916,1917
34077808,48734,34077918,1877
34082808,48726,34082916,1936
34087808,48748,34087918,2005
34092808,48735,34092915,1961
34097808,48735,34097918,1965
34102808,48765,34102915,2037
34107808,48790,34107918,2034
34112808,48853,34112916,2102
34117808,48849,34117918,2039
34122808,48846,34122916,2132
34127808,48909,34127918,2178
34132808,48919,34132915,2205
34137808,48910,34137918,2176
34142808,48911,34142916,2211
34147808,48888,34147918,2257
34152808,48935,34152916,2295
34157808,48893,34157918,2229
34162808,48862,34162916,2240
34167808,48791,34167918,2313
34172808,48729,34172916,2281
34177808,48572,34177918,2224
34182808,48438,34182916,2225
34187808,48308,34187918,2186
34192808,48187,34192916,2223
34197808,47986,34197918,2061
34202808,47778,34202916,2035
34207808,47590,34207918,2022
34212808,47345,34212916,1999
34217808,47179,34217918,1860
34222808,46974,34222916,1823
34227808,46798,34227918,1833
34232808,46595,34232916,1749
34237808,46436,34237918,1691
34242808,46269,34242916,1685
34247808,46131,34247918,1671
34252808,45988,34252915,1618
34257808,45902,34257918,1584
34262808,45824,34262916,1585
34267808,45695,34267918,1571
34272808,45629,34272916,1619
34277808,45563,34277918,1569
34282808,45520,34282916,1600
34287808,45482,34287918,1603
34292808,45450,34292916,1630
34297808,45437,34297918,1552
34302808,45416,34302916,1597
34307808,45393,34307918,1638
34312808,45393,34312915,1673
34317808,45402,34317918,1591
34322808,45398,34322916,1623
34327808,45439,34327918,1651
34332808,45459,34332916,1653
34338808,45446,34338918,1653
34343808,45485,34343916,1650
34348808,45497,34348918,1707
34353808,45550,34353916,1709
34358808,45570,34358918,1638
34363808,45588,34363916,1638
34368808,45638,34368918,1666
34373808,45639,34373915,1647
34378808,45695,34378918,1613
34383808,45737,34383916,1619
34388808,45794,34388918,1663
34393808,45793,34393916,1622
34398808,45834,34398918,1569
34403808,45872,34403916,1628
34408808,45929,34408918,1714
34413808,46004,34413916,1680
34418808,46022,34418918,1578
34423808,46083,34423915,1626
34428808,46090,34428918,1680
34433808,46117,34433916,1655
34438808,46170,34438918,1616
34443808,46191,34443916,1644
34448808,46255,34448918,1708
34453808,46289,34453916,1683
34458808,46282,34458918,1646
34463808,46310,34463916,1603
34468808,46367,34468918,1658
34473808,46369,34473915,1648
34478808,46351,34478918,1597
34483808,46372,34483916,1661
34488808,46403,34488918,1696
34493808,46439,34493916,1696
34498808,46446,34498918,1605
34503808,46385,34503915,1680
34508808,46407,34508918,1695
34513808,46423,34513916,1703
34518808,46421,34518918,1684
34523808,46401,34523916,1659
34528808,46387,34528918,1767
34533808,46372,34533916,1707
34538808,46383,34538918,1632
34543808,46367,34543916,1695
34548808,46358,34548918,1676
34553808,46351,34553916,1733
34558808,46319,34558918,1660
34563808,46369,34563916,1728
34568808,46344,34568918,1689
34573808,46344,34573916,1742
34578808,46334,34578918,1674
34583808,46367,34583915,1653
34588808,46383,34588918,1749
34593808,46372,34593916,1719
34598808,46385,34598917,1710
34603808,46413,34603915,1699
34608808,46438,34608918,1733
34613808,46492,34613916,1710
34618808,46471,34618918,1684
34623808,46523,34623916,1759
34628808,46511,34628918,1743
34633808,46555,34633916,1755
34638808,46583,34638918,1733
34643808,46617,34643916,1790
34648808,46654,34648917,1790
34653808,46662,34653916,1787
34658808,46695,34658918,1731
34663808,46721,34663916,1798
34668808,46739,34668918,1799
34673808,46776,34673916,1797
34678808,46835,34678918,1727
34683808,46858,34683916,1744
34688808,46878,34688918,1823
34693808,46920,34693915,1777
34698808,46944,34698918,1791
34703808,46984,34703916,1765
34708808,46997,34708918,1801
34713808,47057,34713916,1748
34718808,47077,34718918,1806
34723808,47126,34723916,1808
34728808,47137,34728918,1839
34733808,47164,34733916,1837
34738808,47202,34738918,1851
34743808,47222,34743916,1882
34748808,47291,34748918,1933
34753808,47289,34753916,1922
34758808,47317,34758918,1889
34763808,47359,34763916,1878
34768808,47405,34768918,1869
34773808,47429,34773916,1854
34778808,47443,34778918,1823
34783808,47456,34783915,1802
34788808,47473,34788918,1867
34793808,47527,34793916,1829
34798808,47587,34798918,1793
34803808,47598,34803915,1798
34808808,47651,34808918,1822
34813808,47679,34813916,1842
34818808,47709,34818918,1783
34823808,47711,34823916,1837
34828808,47772,34828918,1886
34833808,47836,34833916,1895
34838808,47837,34838918,1834
34843808,47882,34843916,1859
34848808,47879,34848918,1933
34853808,47867,34853916,1931
34858808,47935,34858918,2023
34863808,47928,34863916,2512
34868808,47967,34868918,3595
34873808,47943,34873916,4095
34878808,47994,34878918,4095
34883808,48007,34883916,4095
34888808,48044,34888918,3949
34893808,48046,34893916,2259
34898808,48058,34898918,1488
34903808,48074,34903916,1597
34908808,48096,34908918,1852
34913808,48086,34913916,1825
34918808,48115,34918918,1770
34923808,48157,34923916,1732
34928808,48131,34928918,1760
34933808,48161,34933916,1769
34938808,48175,34938918,1738
34943808,48231,34943915,1709
34948808,48232,34948918,1789
34953808,48218,34953916,1778
34958808,48259,34958918,1753
34963808,48294,34963916,1746
34968808,48295,34968918,1787
34973808,48311,34973916,1767
34978808,48324,34978918,1816
34983808,48341,34983915,1809
34988808,48343,34988918,1870
34993808,48353,34993916,1821
34998808,48382,34998918,1867
35003808,48387,35003916,1879
35008808,48421,35008918,1874
35013808,48421,35013916,1872
35018808,48423,35018918,1905
35023808,48437,35023916,1933
35028808,48473,35028918,1983
35033808,48462,35033916,1965
35039808,48494,35039918,1941
35044808,48516,35044916,1983
35049808,48508,35049918,2064
35054808,48511,35054916,2043
35059808,48536,35059918,2059
35064808,48557,35064916,2095
35069808,48579,35069918,2151
35074808,48582,35074916,2180
35079808,48600,35079918,2187
35084808,48611,35084916,2189
35089808,48598,35089918,2300
35094808,48572,35094916,2220
35099808,48535,35099918,2199
35104808,48539,35104915,2277
35109808,48473,35109918,2299
35114808,48369,35114916,2265
35119808,48285,35119918,2231
35124808,48146,35124916,2239
35129808,48038,35129918,2258
35134808,47891,35134916,2192
35139808,47751,35139918,2115
35144808,47569,35144916,2103
35149808,47385,35149918,2078
35154808,47210,35154916,1941
35159808,46967,35159918,1893
35164808,46824,35164916,1854
35169808,46656,35169918,1853
35174808,46460,35174915,1750
35179808,46279,35179918,1680
35184808,46119,35184916,1654
35189808,46036,35189918,1682
35194808,45889,35194916,1626
35199808,45786,35199918,1573
35204808,45707,35204916,1561
35209808,45600,35209918,1589
35214808,45539,35214916,1600
35219808,45461,35219918,1585
35224808,45382,35224915,1584
35229808,45372,35229918,1642
35234808,45342,35234916,1570
35239808,45311,35239918,1544
35244808,45313,35244916,1615
35249808,45313,35249918,1639
35254808,45337,35254916,1645
35259808,45314,35259918,1621
35264808,45376,35264916,1590
35269808,45355,35269918,1616
35274808,45380,35274916,1622
35279808,45431,35279918,1589
35284808,45496,35284916,1617
35289808,45511,35289918,1651
35294808,45544,35294916,1632
35299808,45581,35299918,1596
35304808,45653,35304915,1682
35309808,45698,35309918,1677
35314808,45731,35314916,1693
35319808,45796,35319918,1570
35324808,45828,35324916,1616
35329808,45886,35329918,1703
35334808,45940,35334915,1616
35339808,45992,35339918,1620
35344808,46035,35344915,1654
35349808,46096,35349918,1697
35354808,46144,35354915,1641
35359808,46174,35359918,1649
35364808,46232,35364916,1600
35369808,46287,35369918,1647
35374808,46325,35374916,1616
35379808,46360,35379918,1634
35384808,46426,35384916,1653
35389808,46449,35389918,1679
35394808,46488,35394916,1667
35399808,46514,35399918,1579
35404808,46527,35404916,1622
35409808,46565,35409918,1680
35414808,46551,35414916,1635
35419808,46610,35419918,1616
35424808,46598,35424916,1679
35429808,46596,35429918,1727
35434808,46617,35434916,1665
35439808,46633,35439918,1648
35444808,46637,35444916,1638
35449808,46583,35449918,1691
35454808,46595,35454915,1670
35459808,46571,35459918,1680
35464808,46591,35464916,1677
35469808,46583,35469918,1751
35474808,46559,35474916,1695
35479808,46536,35479918,1709
35484808,46519,35484916,1655
35489808,46480,35489918,1750
35494808,46477,35494916,1689
35499808,46475,35499918,1691
35504808,46455,35504916,1701
35509808,46449,35509918,1733
35514808,46445,35514916,1744
35519808,46446,35519918,1712
35524808,46442,35524916,1738
35529808,46452,35529918,1757
35534808,46464,35534916,1743
35539808,46463,35539918,1739
35544808,46518,35544916,1696
35549808,46506,35549918,1745
35554808,46486,35554916,1744
35559808,46509,35559918,1697
35564808,46483,35564916,1697
35569808,46540,35569918,1808
35574808,46533,35574916,1744
35579808,46551,35579918,1718
35584808,46565,35584916,1733
35589808,46614,35589918,1816
35594808,46636,35594916,1789
35599808,46601,35599918,1742
35604808,46635,35604916,1729
35609808,46660,35609918,1802
35614808,46692,35614916,1823
35619808,46695,35619918,1793
35624808,46738,35624916,1753
35629808,46759,35629918,1793
35634808,46789,35634916,1797
35639808,46809,35639918,1781
35644808,46871,35644916,1813
35649808,46874,35649918,1875
35654808,46923,35654915,1823
35659808,46923,35659918,1875
35664808,46959,35664916,1879
35669808,47001,35669918,1925
35674808,47025,35674916,1934
35679808,47063,35679918,1833
35684808,47090,35684916,1860
35689808,47136,35689918,1875
35694808,47149,35694916,1830
35699808,47171,35699918,1750
35704808,47196,35704915,1838
35709808,47213,35709918,1890
35714808,47254,35714916,1779
35719808,47291,35719918,1763
35724808,47340,35724916,1807
35730808,47367,35730918,1877
35735808,47401,35735916,1746
35740808,47409,35740918,1814
35745808,47425,35745915,1827
35750808,47434,35750918,1885
35755808,47479,35755916,1814
35760808,47497,35760918,1856
35765808,47507,35765916,1922
35770808,47550,35770918,1959
35775808,47549,35775916,2022
35780808,47601,35780918,2403
35785808,47596,35785916,3288
35790808,47608,35790918,4095
35795808,47625,35795916,4095
35800808,47642,35800918,4095
35805808,47691,35805916,4095
35810808,47718,35810918,2711
35815808,47749,35815915,1648
35820808,47774,35820918,1511
35825808,47784,35825915,1738
35830808,47826,35830918,1872
35835808,47841,35835916,1821
35840808,47876,35840918,1697
35845808,47862,35845916,1712
35850808,47902,35850918,1755
35855808,47952,35855915,1734
35860808,47960,35860918,1718
35865808,47987,35865915,1778
35870808,48008,35870918,1758
35875808,47988,35875916,1725
35880808,48058,35880918,1765
35885808,48103,35885916,1779
35890808,48126,35890918,1798
35895808,48120,35895915,1748
35900808,48126,35900918,1712
35905808,48138,35905916,1815
35910808,48163,35910918,1849
35915808,48229,35915916,1826
35920808,48202,35920918,1849
35925808,48227,35925915,1853
35930808,48260,35930918,1897
35935808,48279,35935916,1921
35940808,48308,35940918,1861
35945808,48339,35945916,1932
35950808,48331,35950918,1982
35955808,48400,35955915,1983
35960808,48413,35960918,1917
35965808,48426,35965916,1951
35970808,48494,35970918,2030
35975808,48529,35975915,2006
35980808,48512,35980918,2090
35985808,48538,35985916,2077
35990808,48544,35990918,2199
35995808,48608,35995916,2183
36000808,48646,36000918,2182
36005808,48671,36005916,2192
36010808,48687,36010918,2221
36015808,48676,36015915,2224
36020808,48645,36020918,2234
36025808,48631,36025916,2256
36030808,48588,36030918,2311
36035808,48560,36035916,2223
36040808,48467,36040918,2229
36045808,48355,36045916,2190
36050808,48246,36050918,2259
36055808,48121,36055916,2160
36060808,47930,36060918,2069
36065808,47786,36065915,2064
36070808,47610,36070918,2027
36075808,47450,36075916,1968
36080808,47282,36080918,1786
36085808,47143,36085916,1811
36090808,46931,36090918,1738
36095808,46771,36095916,1666
36100808,46614,36100918,1606
36105808,46429,36105915,1631
36110808,46334,36110918,1601
36115808,46255,36115916,1569
36120808,46094,36120918,1535
36125808,46004,36125915,1554
36130808,45920,36130918,1581
36135808,45856,36135915,1573
36140808,45797,36140918,1527
36145808,45719,36145916,1526
36150808,45686,36150918,1567
36155808,45644,36155916,1576
36160808,45666,36160918,1523
36165808,45624,36165916,1585
36170808,45629,36170918,1567
36175808,45644,36175916,1600
36180808,45617,36180918,1607
36185808,45649,36185916,1627
36190808,45660,36190918,1631
36195808,45689,36195916,1599
36200808,45712,36200918,1546
36205808,45755,36205915,1616
36210808,45788,36210918,1639
36215808,45831,36215916,1619
36220808,45832,36220918,1595
36225808,45888,36225916,1617
36230808,45877,36230918,1712
36235808,45915,36235916,1647
36240808,45985,36240918,1614
36245808,46012,36245916,1606
36250808,46087,36250918,1643
36255808,46083,36255916,1605
36260808,46109,36260918,1583
36265808,46119,36265916,1551
36270808,46171,36270918,1647
36275808,46259,36275916,1618
36280808,46279,36280918,1553
36285808,46323,36285915,1606
36290808,46390,36290918,1675
36295808,46435,36295916,1649
36300808,46462,36300918,1599
36305808,46459,36305916,1647
36310808,46503,36310918,1637
36315808,46542,36315916,1643
36320808,46545,36320918,1622
36325808,46564,36325915,1600
36330808,46588,36330918,1669
36335808,46576,36335916,1650
36340808,46586,36340918,1668
36345808,46583,36345915,1679
36350808,46595,36350918,1712
36355808,46576,36355916,1671
36360808,46536,36360918,1622
36365808,46564,36365916,1673
36370808,46557,36370918,1681
36375808,46541,36375915,1661
36380808,46513,36380918,1666
36385808,46487,36385915,1703
36391808,46476,36391918,1707
36396808,46501,36396916,1650
36401808,46419,36401918,1664
36406808,46441,36406916,1699
36411808,46415,36411918,1776
36416808,46371,36416915,1680
36421808,46381,36421918,1665
36426808,46358,36426916,1659
36431808,46369,36431918,1727
36436808,46336,36436916,1723
36441808,46348,36441918,1714
36446808,46319,36446916,1771
36451808,46290,36451918,1763
36456808,46357,36456916,1680
36461808,46335,36461918,1712
36466808,46348,36466916,1680
36471808,46340,36471918,1776
36476808,46364,36476915,1746
36481808,46363,36481918,1744
36486808,46356,36486916,1754
36491808,46397,36491918,1766
36496808,46416,36496915,1703
36501808,46459,36501918,1717
36506808,46459,36506915,1768
36511808,46529,36511918,1776
36516808,46550,36516916,1680
36521808,46603,36521918,1744
36526808,46605,36526916,1782
36531808,46629,36531918,1795
36536808,46652,36536916,1757
36541808,46716,36541918,1830
36546808,46786,36546916,1856
36551808,46780,36551918,1891
36556808,46815,36556915,1856
36561808,46880,36561918,1808
36566808,46862,36566916,1875
36571808,46899,36571918,1914
36576808,46959,36576916,1824
36581808,46995,36581918,1773
36586808,46997,36586916,1802
36591808,47078,36591918,1867
36596808,47076,36596916,1744
36601808,47129,36601918,1818
36606808,47158,36606916,1787
36611808,47199,36611918,1811
36616808,47247,36616915,1805
36621808,47314,36621918,1794
36626808,47304,36626915,1768
36631808,47396,36631918,1854
36636808,47418,36636916,1772
36641808,47475,36641918,1773
36646808,47449,36646916,1866
36651808,47514,36651918,1929
36656808,47569,36656916,1872
36661808,47629,36661918,1838
36666808,47673,36666916,2128
36671808,47674,36671918,2657
36676808,47749,36676916,3761
36681808,47740,36681918,4095
36686808,47798,36686915,4095
36691808,47836,36691918,4095
36696808,47872,36696915,3719
36701808,47892,36701918,2034
36706808,47940,36706916,1503
36711808,47961,36711918,1633
36716808,48022,36716915,1738
36721808,48034,36721918,1829
36726808,48056,36726915,1743
36731808,48063,36731918,1810
36736808,48105,36736916,1666
36741808,48117,36741918,1673
36746808,48173,36746916,1669
36751808,48179,36751918,1773
36756808,48197,36756916,1741
36761808,48253,36761918,1729
36766808,48250,36766916,1731
36771808,48277,36771918,1787
36776808,48277,36776916,1739
36781808,48289,36781918,1698
36786808,48330,36786915,1799
36791808,48305,36791918,1814
36796808,48347,36796916,1776
36801808,48343,36801918,1807
36806808,48377,36806916,1855
36811808,48388,36811918,1869
36816808,48440,36816916,1855
36821808,48433,36821918,1853
36826808,48427,36826916,1872
36831808,48439,36831918,1919
36836808,48461,36836916,1916
36841808,48465,36841918,1910
36846808,48509,36846915,1929
36851808,48511,36851918,2070
36856808,48502,36856916,2018
36861808,48554,36861918,1989
36866808,48597,36866916,2036
36871808,48580,36871918,2132
36876808,48670,36876915,2079
36881808,48611,36881918,2121
36886808,48684,36886916,2173
36891808,48674,36891918,2205
36896808,48639,36896916,2209
36901808,48665,36901918,2240
36906808,48642,36906915,2270
36911808,48628,36911918,2289
36916808,48547,36916916,2203
36921808,48480,36921918,2190
36926808,48391,36926916,2267
36931808,48291,36931918,2230
36936808,48166,36936916,2222
36941808,47970,36941918,2160
36946808,47844,36946916,2169
36951808,47671,36951918,2175
36956808,47496,36956916,2019
36961808,47315,36961918,1938
36966808,47135,36966916,1861
36971808,46955,36971918,1840
36976808,46781,36976915,1744
36981808,46599,36981918,1712
36986808,46399,36986916,1697
36991808,46263,36991918,1647
36996808,46117,36996916,1591
37001808,46015,37001918,1584
37006808,45896,37006916,1552
37011808,45783,37011918,1569
37016808,45707,37016916,1551
37021808,45631,37021918,1546
37026808,45574,37026916,1534
37031808,45521,37031918,1638
37036808,45490,37036916,1524
37041808,45423,37041918,1590
37046808,45390,37046916,1630
37051808,45351,37051918,1648
37056808,45385,37056916,1584
37061808,45410,37061918,1600
37066808,45350,37066916,1621
37071808,45402,37071918,1638
37077808,45408,37077916,1626
37082808,45410,37082918,1589
37087808,45402,37087916,1634
37092808,45447,37092918,1699
37097808,45436,37097916,1632
37102808,45466,37102918,1597
37107808,45501,37107915,1687
37112808,45541,37112918,1673
37117808,45563,37117916,1618
37122808,45583,37122918,1633
37127808,45642,37127916,1621
37132808,45694,37132918,1637
37137808,45683,37137916,1629
37142808,45758,37142918,1648
37147808,45780,37147916,1639
37152808,45826,37152918,1658
37157808,45872,37157916,1664
37162808,45896,37162918,1629
37167808,45942,37167916,1662
37172808,46005,37172918,1682
37177808,46040,37177916,1614
37182808,46100,37182918,1639
37187808,46135,37187916,1685
37192808,46164,37192918,1679
37197808,46179,37197916,1600
37202808,46236,37202918,1589
37207808,46251,37207916,1632
37212808,46283,37212918,1696
37217808,46319,37217916,1577
37222808,46328,37222918,1591
37227808,46363,37227916,1678
37232808,46430,37232918,1703
37237808,46360,37237916,1598
37242808,46380,37242918,1671
37247808,46397,37247916,1661
37252808,46371,37252918,1687
37257808,46374,37257916,1635
37262808,46373,37262918,1698
37267808,46392,37267916,1671
37272808,46382,37272918,1707
37277808,46374,37277916,1655
37282808,46357,37282918,1661
37287808,46372,37287916,1682
37292808,46314,37292918,1755
37297808,46344,37297916,1718
37302808,46344,37302918,1707
37307808,46335,37307916,1696
37312808,46331,37312918,1712
37317808,46374,37317916,1662
37322808,46348,37322918,1717
37327808,46345,37327916,1749
37332808,46360,37332918,1738
37337808,46374,37337916,1694
37342808,46419,37342918,1713
37347808,46415,37347916,1735
37352808,46444,37352918,1741
37357808,46477,37357916,1699
37362808,46486,37362918,1731
37367808,46505,37367916,1763
37372808,46550,37372918,1811
37377808,46573,37377916,1735
37382808,46593,37382918,1729
37387808,46609,37387916,1776
37392808,46632,37392918,1783
37397808,46661,37397916,1722
37402808,46706,37402918,1717
37407808,46717,37407916,1783
37412808,46757,37412918,1865
37417808,46780,37417916,1744
37422808,46804,37422918,1751
37427808,46832,37427916,1831
37432808,46887,37432918,1776
37437808,46926,37437916,1769
37442808,46958,37442918,1796
37447808,46989,37447915,1809
37452808,47011,37452918,1839
37457808,47080,37457915,1759
37462808,47070,37462918,1797
37467808,47092,37467916,1839
37472808,47147,37472918,1883
37477808,47191,37477915,1837
37482808,47191,37482918,1845
37487808,47218,37487916,1898
37492808,47233,37492918,1965
37497808,47295,37497916,1898
37502808,47365,37502918,1915
37507808,47320,37507916,1872
37512808,47351,37512918,1895
37517808,47381,37517916,1875
37522808,47420,37522918,1841
37527808,47452,37527916,1872
37532808,47524,37532918,1872
37537808,47522,37537916,1799
37542808,47555,37542918,1808
37547808,47592,37547915,1845
37552808,47602,37552918,1869
37557808,47661,37557916,1797
37562808,47661,37562918,1828
37567808,47720,37567916,1782
37572808,47776,37572918,1878
37577808,47802,37577915,1828
37582808,47785,37582918,1808
37587808,47834,37587916,1872
37592808,47852,37592918,1909
37597808,47892,37597916,1834
37602808,47893,37602918,1889
37607808,47889,37607916,2154
37612808,47897,37612918,2800
37617808,47953,37617916,4062
37622808,47994,37622918,4095
37627808,47972,37627916,4095
37632808,48007,37632918,4095
37637808,48006,37637916,3535
37642808,48016,37642918,1967
37647808,48023,37647916,1533
37652808,48048,37652918,1713
37657808,48094,37657916,1808
37662808,48115,37662918,1811
37667808,48125,37667916,1776
37672808,48141,37672918,1840
37677808,48162,37677916,1759
37682808,48173,37682918,1719
37687808,48206,37687915,1794
37692808,48197,37692918,1770
37697808,48217,37697916,1726
37702808,48269,37702918,1770
37707808,48245,37707916,1840
37712808,48297,37712918,1794
37717808,48270,37717915,1744
37722808,48308,37722918,1832
37727808,48305,37727915,1838
37732808,48341,37732918,1881
37737808,48339,37737916,1811
37742808,48355,37742918,1794
37747808,48392,37747916,1834
37752808,48384,37752918,1891
37757808,48387,37757915,1840
37763808,48382,37763918,1891
37768808,48426,37768916,1927
37773808,48433,37773918,1929
37778808,48448,37778916,1924
37783808,48449,37783918,1945
37788808,48446,37788916,2015
37793808,48498,37793918,2042
37798808,48486,37798915,2007
37803808,48482,37803918,2042
37808808,48526,37808916,2090
37813808,48537,37813918,2155
37818808,48561,37818916,2103
37823808,48542,37823918,2159
37828808,48552,37828916,2234
37833808,48571,37833918,2262
37838808,48537,37838915,2219
37843808,48547,37843918,2239
37848808,48488,37848916,2268
37853808,48445,37853918,2288
37858808,48393,37858915,2274
37863808,48321,37863918,2238
37868808,48172,37868916,2256
37873808,48059,37873918,2257
37878808,47884,37878916,2166
37883808,47759,37883918,2175
37888808,47585,37888916,2133
37893808,47443,37893918,2133
37898808,47203,37898916,2005
37903808,47006,37903918,1966
37908808,46803,37908916,1865
37913808,46638,37913918,1851
37918808,46455,37918915,1757
37923808,46269,37923918,1754
37928808,46104,37928916,1724
37933808,45962,37933918,1693
37938808,45818,37938916,1648
37943808,45691,37943918,1600
37948808,45589,37948916,1631
37953808,45539,37953918,1623
37958808,45428,37958916,1557
37963808,45394,37963918,1616
37968808,45327,37968915,1664
37973808,45265,37973918,1619
37978808,45245,37978915,1570
37983808,45210,37983918,1584
37988808,45216,37988916,1629
37993808,45180,37993918,1627
37998808,45206,37998915,1605
38003808,45219,38003918,1597
38008808,45247,38008916,1680
38013808,45248,38013918,1713
38018808,45259,38018916,1627
38023808,45291,38023918,1623
38028808,45346,38028916,1662
38033808,45403,38033918,1669
38038808,45425,38038915,1655
38043808,45445,38043918,1654
38048808,45505,38048916,1662
38053808,45545,38053918,1731
38058808,45564,38058916,1663
38063808,45605,38063918,1627
38068808,45624,38068916,1662
38073808,45703,38073918,1699
38078808,45751,38078916,1616
38083808,45779,38083918,1639
38088808,45840,38088916,1664
38093808,45870,38093918,1669
38098808,45907,38098916,1600
38103808,45956,38103918,1583
38108808,45999,38108915,1674
38113808,46025,38113918,1694
38118808,46099,38118916,1649
38123808,46137,38123918,1630
38128808,46203,38128916,1655
38133808,46207,38133918,1669
38138808,46232,38138915,1605
38143808,46293,38143918,1650
38148808,46285,38148915,1653
38153808,46314,38153918,1637
38158808,46372,38158916,1631
38163808,46374,38163918,1618
38168808,46356,38168916,1677
38173808,46370,38173918,1681
38178808,46364,38178916,1631
38183808,46378,38183918,1595
38188808,46366,38188916,1633
38193808,46310,38193918,1711
38198808,46324,38198916,1618
38203808,46306,38203918,1671
38208808,46325,38208916,1670
38213808,46315,38213918,1696
38218808,46306,38218916,1610
38223808,46273,38223918,1648
38228808,46285,38228916,1643
38233808,46253,38233918,1683
38238808,46270,38238916,1665
38243808,46257,38243918,1649
38248808,46277,38248916,1729
38253808,46260,38253918,1711
38258808,46266,38258916,1692
38263808,46257,38263918,1726
38268808,46254,38268916,1743
38273808,46244,38273918,1776
38278808,46247,38278916,1711
38283808,46221,38283918,1723
38288808,46245,38288915,1757
38293808,46213,38293918,1758
38298808,46281,38298916,1702
38303808,46270,38303918,1744
38308808,46281,38308916,1731
38313808,46258,38313918,1759
38318808,46278,38318916,1761
38323808,46333,38323918,1747
38328808,46364,38328916,1731
38333808,46352,38333918,1808
38338808,46421,38338916,1744
38343808,46396,38343918,1783
38348808,46429,38348915,1747
38353808,46503,38353918,1778
38358808,46507,38358916,1747
38363808,46536,38363918,1797
38368808,46564,38368916,1790
38373808,46597,38373918,1821
38378808,46617,38378916,1783
38383808,46651,38383918,1779
38388808,46663,38388916,1788
38393808,46705,38393918,1830
38398808,46720,38398916,1762
38403808,46776,38403918,1756
38408808,46823,38408916,1775
38413808,46829,38413918,1823
38418808,46879,38418916,1742
38423808,46915,38423918,1854
38428808,46925,38428916,1859
38433808,46966,38433918,1910
38438808,46988,38438916,1844
38444808,47025,38444918,1890
38449808,47032,38449915,1918
38454808,47087,38454918,1891
38459808,47079,38459916,1843
38464808,47148,38464918,1863
38469808,47174,38469915,1893
38474808,47214,38474918,1821
38479808,47221,38479916,1778
38484808,47255,38484918,1819
38489808,47264,38489916,1858
38494808,47293,38494918,1847
38499808,47308,38499915,1805
38504808,47353,38504918,1828
38509808,47374,38509916,1850
38514808,47395,38514918,1933
38519808,47416,38519916,1807
38524808,47461,38524918,1847
38529808,47457,38529916,1833
38534808,47511,38534918,1878
38539808,47532,38539916,1875
38544808,47565,38544918,1895
38549808,47609,38549916,1958
38554808,47647,38554918,2308
38559808,47627,38559915,2953
38564808,47642,38564918,4095
38569808,47681,38569915,4095
38574808,47737,38574918,4095
38579808,47727,38579915,4095
38584808,47786,38584918,2959
38589808,47812,38589915,1775
38594808,47837,38594918,1535
38599808,47882,38599915,1706
38604808,47917,38604918,1807
38609808,47955,38609916,1840
38614808,47964,38614918,1803
38619808,47994,38619916,1722
38624808,48027,38624918,1753
38629808,48026,38629916,1760
38634808,48049,38634918,1776
38639808,48056,38639916,1729
38644808,48097,38644918,1776
38649808,48087,38649916,1827
38654808,48126,38654918,1767
38659808,48152,38659916,1767
38664808,48190,38664918,1791
38669808,48219,38669916,1869
38674808,48247,38674918,1818
38679808,48264,38679915,1779
38684808,48282,38684918,1793
38689808,48317,38689916,1843
38694808,48347,38694918,1871
38699808,48365,38699915,1891
38704808,48402,38704918,1893
38709808,48419,38709916,1875
38714808,48456,38714918,1982
38719808,48495,38719916,1927
38724808,48530,38724918,1921
38729808,48575,38729916,2029
38734808,48579,38734918,1999
38739808,48633,38739915,1993
38744808,48608,38744918,2031
38749808,48669,38749916,2086
38754808,48692,38754918,2112
38759808,48733,38759916,2080
38764808,48768,38764918,2098
38769808,48773,38769916,2209
38774808,48773,38774918,2262
38779808,48788,38779915,2237
38784808,48805,38784918,2213
38789808,48783,38789915,2287
38794808,48749,38794918,2298
38799808,48735,38799916,2229
38804808,48695,38804918,2240
38809808,48592,38809916,2283
38814808,48479,38814918,2277
38819808,48341,38819915,2225
38824808,48203,38824918,2176
38829808,48051,38829916,2207
38834808,47867,38834918,2160
38839808,47699,38839916,2059
38844808,47473,38844918,1969
38849808,47311,38849916,2012
38854808,47121,38854918,1936
38859808,46872,38859916,1797
38864808,46685,38864917,1787
38869808,46500,38869916,1730
38874808,46348,38874918,1713
38879808,46286,38879915,1663
38884808,46095,38884918,1641
38889808,45950,38889915,1683
38894808,45845,38894918,1650
38899808,45734,38899916,1535
38904808,45665,38904918,1591
38909808,45614,38909916,1616
38914808,45562,38914918,1629
38919808,45493,38919915,1591
38924808,45471,38924918,1569
38929808,45481,38929916,1611
38934808,45449,38934918,1663
38939808,45438,38939916,1599
38944808,45442,38944918,1644
38949808,45424,38949916,1680
38954808,45437,38954918,1694
38959808,45465,38959915,1611
38964808,45498,38964918,1602
38969808,45475,38969915,1681
38974808,45518,38974918,1630
38979808,45512,38979916,1648
38984808,45531,38984918,1647
38989808,45560,38989916,1660
38994808,45602,38994918,1690
38999808,45661,38999915,1647
39004808,45656,39004918,1667
39009808,45684,39009916,1679
39014808,45649,39014918,1708
39019808,45740,39019916,1658
39024808,45771,39024918,1616
39029808,45819,39029915,1629
39034808,45856,39034918,1649
39039808,45893,39039916,1627
39044808,45946,39044918,1584
39049808,45965,39049916,1635
39054808,46015,39054918,1686
39059808,46070,39059916,1600
39064808,46096,39064918,1594
39069808,46137,39069915,1662
39074808,46176,39074918,1621
39079808,46221,39079916,1645
39084808,46234,39084918,1687
39089808,46251,39089916,1683
39094808,46304,39094918,1643
39099808,46309,39099916,1619
39104808,46336,39104918,1639
39109808,46340,39109916,1678
39114808,46341,39114918,1682
39119808,46314,39119916,1670
39124808,46337,39124918,1680
39129808,46324,39129916,1683
39134808,46346,39134918,1694
39139808,46331,39139916,1695
39145808,46315,39145918,1675
39150808,46307,39150915,1743
39155808,46296,39155918,1712
39160808,46277,39160916,1638
39165808,46255,39165918,1661
39170808,46257,39170916,1754
39175808,46239,39175918,1680
39180808,46206,39180916,1666
39185808,46203,39185918,1712
39190808,46172,39190915,1744
39195808,46184,39195918,1722
39200808,46189,39200916,1733
39205808,46154,39205918,1723
39210808,46165,39210915,1759
39215808,46169,39215918,1712
39220808,46165,39220916,1701
39225808,46185,39225918,1719
39230808,46187,39230915,1771
39235808,46213,39235917,1746
39240808,46213,39240915,1665
39245808,46224,39245918,1718
39250808,46210,39250916,1781
39255808,46288,39255918,1735
39260808,46317,39260916,1712
39265808,46331,39265918,1729
39270808,46377,39270916,1781
39275808,46362,39275918,1773
39280808,46400,39280916,1774
39285808,46434,39285918,1763
39290808,46483,39290916,1786
39295808,46501,39295918,1797
39300808,46529,39300915,1771
39305808,46564,39305918,1753
39310808,46584,39310915,1810
39315808,46649,39315918,1789
39320808,46660,39320916,1735
39325808,46723,39325918,1763
39330808,46742,39330916,1794
39335808,46778,39335918,1776
39340808,46851,39340916,1789
39345808,46852,39345918,1753
39350808,46897,39350915,1826
39355808,46944,39355918,1792
39360808,46979,39360915,1775
39365808,47035,39365918,1817
39370808,47115,39370916,1870
39375808,47141,39375918,1866
39380808,47181,39380916,1872
39385808,47185,39385918,1899
39390808,47270,39390915,1951
39395808,47326,39395918,1950
39400808,47365,39400916,1817
39405808,47391,39405918,1846
39410808,47441,39410916,1882
39415808,47458,39415918,1845
39420808,47545,39420916,1810
39425808,47572,39425918,1781
39430808,47615,39430916,1846
39435808,47639,39435918,1845
39440808,47681,39440916,1777
39445808,47708,39445918,1805
39450808,47759,39450916,1855
39455808,47793,39455918,1839
39460808,47838,39460916,1814
39465808,47851,39465918,1877
39470808,47887,39470915,1845
39475808,47919,39475918,1840
39480808,47951,39480915,1826
39485808,47996,39485918,1857
39490808,48020,39490915,1901
39495808,48032,39495918,2027
39500808,48045,39500916,2431
39505808,48105,39505918,3379
39510808,48101,39510916,4095
39515808,48110,39515918,4095
39520808,48122,39520916,4095
39525808,48157,39525918,4095
39530808,48207,39530916,2703
39535808,48252,39535918,1632
39540808,48202,39540916,1524
39545808,48255,39545918,1712
39550808,48269,39550915,1856
39555808,48249,39555918,1812
39560808,48301,39560916,1697
39565808,48325,39565918,1712
39570808,48348,39570915,1757
39575808,48322,39575918,1751
39580808,48389,39580916,1694
39585808,48404,39585918,1702
39590808,48419,39590915,1747
39595808,48447,39595918,1770
39600808,48520,39600916,1760
39605808,48489,39605918,1758
39610808,48532,39610916,1774
39615808,48515,39615918,1819
39620808,48547,39620916,1742
39625808,48570,39625918,1749
39630808,48548,39630916,1857
39635808,48532,39635918,1817
39640808,48589,39640916,1776
39645808,48630,39645918,1825
39650808,48643,39650915,1862
39655808,48618,39655918,1850
39660808,48626,39660916,1840
39665808,48656,39665918,1899
39670808,48655,39670916,1923
39675808,48702,39675918,1975
39680808,48675,39680915,1958
39685808,48722,39685918,1991
39690808,48770,39690916,2032
39695808,48785,39695918,2101
39700808,48793,39700916,2018
39705808,48782,39705918,2103
39710808,48849,39710916,2127
39715808,48870,39715918,2130
39720808,48877,39720916,2135
39725808,48865,39725918,2183
39730808,48856,39730916,2249
39735808,48857,39735918,2239
39740808,48833,39740916,2213
39745808,48811,39745918,2250
39750808,48761,39750915,2250
39755808,48664,39755918,2272
39760808,48563,39760916,2209
39765808,48444,39765917,2192
39770808,48331,39770916,2176
39775808,48174,39775918,2161
39780808,47988,39780915,2096
39785808,47840,39785918,2042
39791808,47648,39791916,2032
39796808,47489,39796918,1951
39801808,47303,39801915,1817
39806808,47122,39806918,1775
39811808,46947,39811916,1781
39816808,46751,39816918,1717
39821808,46599,39821915,1635
39826808,46494,39826918,1662
39831808,46322,39831916,1621
39836808,46212,39836918,1573
39841808,46073,39841916,1493
39846808,46020,39846918,1534
39851808,45959,39851916,1591
39856808,45870,39856918,1552
39861808,45811,39861916,1473
39866808,45778,39866918,1577
39871808,45761,39871916,1569
39876808,45722,39876918,1597
39881808,45729,39881916,1519
39886808,45722,39886918,1577
39891808,45737,39891916,1607
39896808,45763,39896918,1575
39901808,45746,39901916,1521
39906808,45745,39906918,1597
39911808,45792,39911916,1616
39916808,45827,39916918,1626
39921808,45846,39921915,1584
39926808,45855,39926918,1580
39931808,45909,39931916,1634
39936808,45927,39936918,1658
39941808,45980,39941915,1615
39946808,46020,39946918,1633
39951808,46058,39951916,1638
39956808,46100,39956918,1622
39961808,46154,39961916,1535
39966808,46206,39966918,1629
39971808,46278,39971916,1666
39976808,46347,39976918,1650
39981808,46336,39981916,1597
39986808,46387,39986918,1632
39991808,46485,39991915,1653
39996808,46539,39996918,1606
40001808,46541,40001916,1621
40006808,46570,40006918,1619
40011808,46661,40011916,1687
40016808,46691,40016918,1629
40021808,46717,40021916,1637
40026808,46767,40026918,1660
40031808,46841,40031916,1667
40036808,46840,40036918,1651
40041808,46903,40041915,1636
40046808,46915,40046918,1639
40051808,46932,40051916,1702
40056808,46996,40056918,1659
40061808,47011,40061916,1630
40066808,46987,40066918,1623
40071808,47012,40071915,1693
40076808,47035,40076917,1660
40081808,47068,40081915,1659
40086808,47054,40086918,1701
40091808,47050,40091915,1662
40096808,47062,40096918,1690
40101808,47036,40101916,1613
40106808,47023,40106918,1667
40111808,47024,40111916,1730
40116808,47023,40116918,1734
40121808,47001,40121915,1691
40126808,47016,40126918,1673
40131808,47005,40131915,1674
40136808,46988,40136918,1735
40141808,46999,40141915,1650
40146808,46977,40146918,1664
40151808,46996,40151916,1735
40156808,46994,40156918,1741
40161808,46999,40161916,1682
40166808,47000,40166918,1701
40171808,47007,40171916,1808
40176808,47025,40176917,1759
40181808,47020,40181915,1749
40186808,47029,40186918,1771
40191808,47051,40191916,1754
40196808,47056,40196918,1807
40201808,47051,40201916,1714
40206808,47088,40206918,1771
40211808,47091,40211916,1761
40216808,47106,40216918,1741
40221808,47177,40221916,1703
40226808,47139,40226918,1792
40231808,47153,40231916,1791
40236808,47179,40236918,1759
40241808,47214,40241916,1695
40246808,47263,40246918,1720
40251808,47311,40251916,1818
40256808,47344,40256918,1803
40261808,47358,40261916,1749
40266808,47374,40266918,1843
40271808,47390,40271916,1923
40276808,47480,40276918,1872
40281808,47470,40281916,1873
40286808,47508,40286918,1895
40291808,47542,40291916,1913
40296808,47575,40296918,1873
40301808,47603,40301916,1791
40306808,47633,40306918,1767
40311808,47652,40311916,1831
40316808,47679,40316918,1826
40321808,47696,40321916,1773
40326808,47752,40326918,1797
40331808,47782,40331916,1861
40336808,47819,40336918,1771
40341808,47818,40341915,1774
40346808,47825,40346918,1795
40351808,47854,40351916,1787
40356808,47858,40356918,1803
40361808,47908,40361916,1745
40366808,47948,40366918,1838
40371808,47982,40371916,1897
40376808,47975,40376918,1891
40381808,48032,40381916,1858
40386808,48047,40386918,1973
40391808,48066,40391916,2294
40396808,48095,40396918,3040
40401808,48130,40401916,4095
40406808,48131,40406918,4095
40411808,48149,40411915,4095
40416808,48201,40416917,4095
40421808,48220,40421916,2889
40426808,48259,40426918,1703
40431808,48268,40431916,1547
40436808,48284,40436918,1701
40441808,48314,40441916,1767
40446808,48352,40446918,1777
40451808,48354,40451916,1773
40456808,48371,40456918,1731
40461808,48392,40461915,1676
40466808,48408,40466918,1702
40471808,48459,40471916,1751
40476808,48454,40476918,1781
40482808,48467,40482916,1727
40487808,48475,40487918,1761
40492808,48484,40492916,1834
40497808,48513,40497918,1779
40502808,48512,40502916,1795
40507808,48511,40507918,1750
40512808,48557,40512916,1823
40517808,48537,40517918,1796
40522808,48586,40522916,1773
40527808,48600,40527918,1827
40532808,48596,40532916,1829
40537808,48632,40537918,1874
40542808,48623,40542916,1888
40547808,48618,40547918,1872
40552808,48627,40552916,1932
40557808,48676,40557918,1931
40562808,48693,40562916,1917
40567808,48733,40567918,1950
40572808,48715,40572916,2007
40577808,48768,40577918,2000
40582808,48768,40582916,1989
40587808,48752,40587918,2021
40592808,48800,40592916,2112
40597808,48834,40597918,2096
40602808,48802,40602916,2095
40607808,48894,40607918,2112
40612808,48916,40612916,2210
40617808,48915,40617918,2203
40622808,48897,40622916,2209
40627808,48906,40627918,2240
40632808,48897,40632916,2289
40637808,48904,40637918,2262
40642808,48846,40642916,2223
40647808,48804,40647918,2273
40652808,48718,40652916,2294
40657808,48615,40657918,2224
40662808,48488,40662915,2191
40667808,48380,40667918,2129
40672808,48234,40672916,2130
40677808,48096,40677918,2015
40682808,47917,40682916,1955
40687808,47750,40687918,1937
40692808,47589,40692916,1872
40697808,47440,40697918,1790
40702808,47252,40702916,1714
40707808,47077,40707918,1664
40712808,46982,40712916,1675
40717808,46820,40717918,1626
40722808,46715,40722916,1619
40727808,46576,40727918,1594
40732808,46489,40732916,1594
40737808,46459,40737918,1584
40742808,46373,40742916,1557
40747808,46286,40747918,1551
40752808,46269,40752916,1578
40757808,46226,40757918,1563
40762808,46219,40762916,1557
40767808,46198,40767918,1552
40772808,46188,40772916,1599
40777808,46174,40777918,1598
40782808,46169,40782916,1594
40787808,46180,40787918,1621
40792808,46169,40792916,1606
40797808,46200,40797918,1591
40802808,46253,40802916,1573
40807808,46272,40807918,1643
40812808,46256,40812916,1646
40817808,46311,40817918,1616
40822808,46333,40822916,1647
40827808,46402,40827918,1615
40832808,46400,40832916,1670
40837808,46432,40837918,1660
40842808,46460,40842916,1618
40847808,46473,40847918,1623
40852808,46553,40852916,1711
40857808,46632,40857918,1605
40862808,46645,40862916,1643
40867808,46657,40867918,1616
40872808,46711,40872916,1669
40877808,46731,40877918,1652
40882808,46854,40882916,1655
40887808,46835,40887918,1666
40892808,46911,40892916,1654
40897808,46880,40897918,1647
40902808,46962,40902916,1611
40907808,47045,40907918,1670
40912808,47031,40912916,1730
40917808,47072,40917918,1678
40922808,47097,40922916,1650
40927808,47163,40927918,1648
40932808,47152,40932916,1686
40937808,47174,40937918,1648
40942808,47229,40942916,1618
40947808,47198,40947918,1667
40952808,47220,40952916,1756
40957808,47201,40957917,1695
40962808,47228,40962916,1653
40967808,47222,40967918,1702
40972808,47251,40972916,1757
40977808,47180,40977918,1709
40982808,47223,40982915,1685
40987808,47201,40987918,1717
40992808,47194,40992916,1690
40997808,47182,40997918,1651
41002808,47130,41002916,1681
41007808,47113,41007918,1667
41012808,47085,41012916,1749
41017808,47054,41017918,1744
41022808,47110,41022916,1652
41027808,47068,41027918,1681
41032808,47053,41032916,1777
41037808,47049,41037918,1773
41042808,47028,41042916,1697
41047808,47033,41047918,1746
41052808,47006,41052916,1791
41057808,47048,41057918,1728
41062808,47029,41062916,1710
41067808,47012,41067918,1719
41072808,47023,41072916,1789
41077808,47014,41077918,1711
41082808,47065,41082916,1744
41087808,47020,41087918,1730
41092808,47054,41092915,1749
41097808,47054,41097918,1749
41102808,47091,41102915,1729
41107808,47095,41107918,1795
41112808,47107,41112916,1843
41117808,47130,41117918,1799
41122808,47115,41122916,1714
41127808,47190,41127918,1761
41133808,47172,41133916,1804
41138808,47213,41138918,1775
41143808,47220,41143916,1780
41148808,47236,41148918,1802
41153808,47275,41153916,1797
41158808,47304,41158918,1790
41163808,47297,41163916,1776
41168808,47333,41168918,1870
41173808,47373,41173916,1881
41178808,47397,41178918,1881
41183808,47408,41183916,1936
41188808,47395,41188918,1922
41193808,47442,41193915,1928
41198808,47481,41198918,1930
41203808,47521,41203916,1907
41208808,47516,41208918,1890
41213808,47552,41213916,1919
41218808,47578,41218918,1831
41223808,47627,41223916,1810
41228808,47663,41228918,1821
41233808,47671,41233915,1905
41238808,47751,41238918,1838
41243808,47737,41243915,1809
41248808,47795,41248918,1820
41253808,47837,41253916,1888
41258808,47889,41258918,1839
41263808,47919,41263916,1793
41268808,47941,41268917,1800
41273808,48007,41273915,1898
41278808,48034,41278918,1856
41283808,48048,41283916,1862
41288808,48089,41288918,1885
41293808,48125,41293916,1935
41298808,48168,41298918,1997
41303808,48196,41303916,2439
41308808,48215,41308918,3437
41313808,48263,41313915,4095
41318808,48283,41318918,4095
41323808,48272,41323916,4095
41328808,48322,41328918,4095
41333808,48391,41333916,2383
41338808,48439,41338918,1609
41343808,48419,41343915,1615
41348808,48483,41348918,1770
41353808,48518,41353916,1859
41358808,48515,41358918,1810
41363808,48592,41363915,1749
41368808,48627,41368918,1744
41373808,48627,41373916,1794
41378808,48686,41378918,1745
41383808,48676,41383916,1731
41388808,48749,41388918,1790
41393808,48829,41393916,1787
41398808,48830,41398918,1744
41403808,48869,41403916,1808
41408808,48834,41408918,1776
41413808,48864,41413916,1853
41418808,48907,41418918,1799
41423808,48945,41423916,1809
41428808,48946,41428918,1801
41433808,49010,41433916,1852
41438808,48990,41438918,1872
41443808,49059,41443915,1863
41448808,49090,41448918,1890
41453808,49056,41453916,1962
41458808,49123,41458918,1948
41463808,49122,41463915,1872
41468808,49141,41468918,1955
41473808,49158,41473916,1964
41478808,48943,41478918,1986
41483808,49003,41483916,1968
41488808,49014,41488918,2027
41493808,49046,41493915,2085
41498808,49085,41498918,2029
41503808,49104,41503916,2084
41508808,49102,41508918,2101
41513808,49119,41513916,2209
41518808,49126,41518918,2180
41523808,49160,41523916,2182
41528808,49119,41528918,2194
41533808,49135,41533915,2286
41538808,49093,41538918,2266
41543808,49104,41543915,2244
41548808,48974,41548918,2294
41553808,48909,41553915,2315
41558808,48783,41558918,2272
41563808,48674,41563916,2224
41568808,48596,41568918,2266
41573808,48425,41573915,2239
41578808,48272,41578918,2171
41583808,48098,41583916,2123
41588808,47912,41588918,2043
41593808,47713,41593916,2035
41598808,47544,41598918,1887
41603808,47339,41603916,1778
41608808,47151,41608918,1772
41613808,46972,41613916,1743
41618808,46766,41618918,1686
41623808,46656,41623916,1623
41628808,46446,41628918,1591
41633808,46348,41633916,1615
41638808,46179,41638918,1556
41643808,46118,41643915,1529
41648808,46028,41648918,1598
41653808,45951,41653916,1578
41658808,45856,41658918,1521
41663808,45783,41663916,1492
41668808,45729,41668918,1590
41673808,45708,41673916,1600
41678808,45674,41678918,1614
41683808,45672,41683916,1586
41688808,45638,41688918,1617
41693808,45626,41693916,1622
41698808,45634,41698918,1597
41703808,45633,41703916,1566
41708808,45667,41708918,1590
41713808,45671,41713916,1660
41718808,45695,41718918,1598
41723808,45695,41723916,1607
41728808,45733,41728918,1603
41733808,45755,41733916,1645
41738808,45794,41738918,1626
41743808,45801,41743916,1565
41748808,45845,41748918,1601
41753808,45875,41753915,1654
41758808,45923,41758918,1646
41763808,45952,41763916,1594
41768808,45984,41768918,1613
41773808,46030,41773915,1650
41778808,46064,41778918,1627
41783808,46087,41783916,1590
41789808,46141,41789918,1618
41794808,46195,41794915,1680
41799808,46218,41799918,1611
41804808,46230,41804916,1625
41809808,46284,41809918,1595
41814808,46311,41814916,1617
41819808,46323,41819918,1579
41824808,46368,41824916,1643
41829808,46391,41829918,1638
41834808,46419,41834916,1657
41839808,46423,41839918,1614
41844808,46436,41844916,1603
41849808,46454,41849918,1626
41854808,46465,41854916,1639
41859808,46468,41859918,1569
41864808,46468,41864916,1605
41869808,46519,41869918,1659
41874808,46487,41874916,1641
41879808,46540,41879918,1559
41884808,46478,41884915,1609
41889808,46474,41889918,1648
41894808,46507,41894916,1728
41899808,46471,41899918,1637
41904808,46486,41904916,1680
41909808,46477,41909918,1667
41914808,46466,41914916,1689
41919808,46465,41919918,1648
41924808,46421,41924916,1649
41929808,46453,41929918,1664
41934808,46442,41934916,1701
41939808,46459,41939918,1655
41944808,46441,41944916,1684
41949808,46488,41949918,1695
41954808,46472,41954916,1737
41959808,46456,41959918,1638
41964808,46454,41964915,1723
41969808,46447,41969918,1679
41974808,46502,41974916,1763
41979808,46478,41979918,1689
41984808,46518,41984916,1710
41989808,46515,41989918,1723
41994808,46527,41994916,1801
41999808,46560,41999918,1710
42004808,46573,42004916,1728
42009808,46581,42009918,1702
42014808,46633,42014916,1776
42019808,46650,42019918,1731
42024808,46647,42024915,1717
42029808,46660,42029918,1767
42034808,46777,42034915,1747
42039808,46799,42039918,1748
42044808,46828,42044916,1725
42049808,46855,42049918,1751
42054808,46885,42054916,1824
42059808,46915,42059918,1749
42064808,47006,42064916,1758
42069808,47013,42069918,1745
42074808,47085,42074915,1779
42079808,47124,42079918,1789
42084808,47131,42084916,1759
42089808,47198,42089918,1795
42094808,47232,42094916,1818
42099808,47263,42099918,1818
42104808,47295,42104916,1826
42109808,47348,42109918,1855
42114808,47374,42114916,1938
42119808,47417,42119918,1856
42124808,47445,42124916,1872
42129808,47487,42129918,1922
42134808,47536,42134916,1900
42139808,47534,42139918,1802
42144808,47596,42144916,1801
42149808,47619,42149918,1817
42154808,47653,42154916,1903
42159808,47674,42159918,1825
42164808,47759,42164915,1795
42169808,47796,42169918,1821
42174808,47823,42174916,1846
42179808,47816,42179918,1847
42184808,47874,42184915,1790
42189808,47895,42189918,1799
42194808,47952,42194916,1855
42199808,47955,42199918,1855
42204808,48006,42204916,1799
42209808,48018,42209918,1835
42214808,48049,42214915,1917
42219808,48061,42219918,1872
42224808,48079,42224915,1866
42229808,48108,42229918,2059
42234808,48125,42234916,2668
42239808,48127,42239918,3767
42244808,48181,42244916,4095
42249808,48195,42249918,4095
42254808,48207,42254916,4095
42259808,48262,42259918,3655
42264808,48274,42264916,2074
42269808,48305,42269918,1527
42274808,48340,42274916,1697
42279808,48346,42279918,1819
42284808,48429,42284916,1825
42289808,48376,42289918,1794
42294808,48400,42294916,1745
42299808,48448,42299918,1742
42304808,48463,42304916,1713
42309808,48462,42309918,1741
42314808,48465,42314916,1794
42319808,48477,42319918,1712
42324808,48541,42324916,1745
42329808,48561,42329918,1783
42334808,48547,42334916,1791
42339808,48541,42339918,1761
42344808,48553,42344916,1758
42349808,48570,42349918,1779
42354808,48596,42354916,1879
42359808,48631,42359918,1815
42364808,48626,42364916,1783
42369808,48621,42369918,1881
42374808,48644,42374916,1877
42379808,48662,42379918,1870
42384808,48670,42384916,1847
42389808,48691,42389918,1906
42394808,48717,42394915,1943
42399808,48725,42399918,1889
42404808,48717,42404916,1947
42409808,48778,42409918,1955
42414808,48764,42414915,2032
42419808,48796,42419918,2011
42424808,48813,42424916,2032
42429808,48850,42429918,2037
42434808,48844,42434916,2186
42439808,48858,42439918,2167
42444808,48894,42444916,2145
42449808,48907,42449918,2192
42454808,48904,42454916,2251
42459808,48905,42459918,2231
42465808,48845,42465916,2227
42470808,48849,42470918,2282
42475808,48773,42475916,2271
42480808,48713,42480918,2251
42485808,48630,42485916,2218
42490808,48515,42490918,2289
42495808,48394,42495916,2257
42500808,48248,42500918,2191
42505808,48040,42505916,2188
42510808,47908,42510918,2160
42515808,47707,42515916,2142
42520808,47500,42520918,1989
42525808,47300,42525915,1979
42530808,47081,42530917,1904
42535808,46912,42535916,1855
42540808,46723,42540918,1776
42545808,46538,42545916,1727
42550808,46343,42550918,1703
42555808,46216,42555916,1715
42560808,46032,42560918,1643
42565808,45923,42565916,1595
42570808,45820,42570918,1646
42575808,45720,42575916,1616
42580808,45635,42580918,1552
42585808,45604,42585916,1585
42590808,45566,42590918,1613
42595808,45469,42595915,1631
42600808,45476,42600918,1582
42605808,45399,42605916,1562
42610808,45419,42610918,1611
42615808,45435,42615916,1665
42620808,45391,42620918,1615
42625808,45414,42625915,1652
42630808,45407,42630918,1611
42635808,45439,42635916,1696
42640808,45429,42640918,1582
42645808,45461,42645916,1663
42650808,45491,42650918,1648
42655808,45557,42655916,1708
42660808,45573,42660918,1644
42665808,45578,42665916,1631
42670808,45618,42670917,1687
42675808,45663,42675915,1675
42680808,45704,42680918,1639
42685808,45767,42685916,1625
42690808,45809,42690918,1649
42695808,45849,42695916,1662
42700808,45894,42700918,1648
42705808,45967,42705916,1621
42710808,46021,42710918,1631
42715808,46061,42715916,1694
42720808,46141,42720918,1632
42725808,46136,42725916,1628
42730808,46229,42730918,1627
42735808,46274,42735916,1616
42740808,46325,42740918,1630
42745808,46365,42745915,1661
42750808,46407,42750918,1638
42755808,46462,42755916,1648
42760808,46495,42760918,1650
42765808,46555,42765916,1616
42770808,46547,42770918,1677
42775808,46589,42775915,1712
42780808,46598,42780918,1632
42785808,46612,42785916,1650
42790808,46632,42790918,1648
42795808,46637,42795915,1681
42800808,46649,42800918,1623
42805808,46684,42805916,1642
42810808,46708,42810918,1692
42815808,46691,42815916,1687
42820808,46704,42820918,1650
42825808,46708,42825915,1627
42830808,46663,42830918,1709
42835808,46661,42835916,1744
42840808,46649,42840918,1648
42845808,46632,42845916,1628
42850808,46604,42850918,1697
42855808,46639,42855916,1739
42860808,46603,42860918,1700
42865808,46574,42865916,1650
42870808,46583,42870918,1695
42875808,46582,42875915,1710
42880808,46540,42880918,1661
42885808,46565,42885916,1686
42890808,46558,42890918,1698
42895808,46544,42895916,1745
42900808,46563,42900918,1674
42905808,46564,42905916,1706
42910808,46555,42910918,1684
42915808,46612,42915916,1742
42920808,46572,42920918,1697
42925808,46611,42925916,1692
42930808,46606,42930918,1725
42935808,46664,42935916,1769
42940808,46660,42940918,1681
42945808,46699,42945915,1713
42950808,46704,42950918,1765
42955808,46716,42955916,1781
42960808,46735,42960918,1733
42965808,46784,42965916,1743
42970808,46807,42970918,1776
42975808,46834,42975916,1771
42980808,46810,42980918,1728
42985808,46872,42985916,1735
42990808,46888,42990918,1794
42995808,46925,42995916,1776
43000808,46969,43000918,1744
43005808,46944,43005915,1759
43010808,46997,43010918,1781
43015808,46995,43015916,1870
43020808,47042,43020918,1768
43025808,47081,43025915,1843
43030808,47086,43030918,1865
43035808,47137,43035916,1926
43040808,47171,43040918,1847
43045808,47206,43045916,1851
43050808,47204,43050918,1843
43055808,47262,43055916,1887
43060808,47318,43060918,1840
43065808,47335,43065916,1821
43070808,47367,43070918,1827
43075808,47382,43075916,1815
43080808,47423,43080918,1761
43085808,47456,43085916,1757
43090808,47476,43090918,1828
43095808,47529,43095916,1807
43100808,47566,43100918,1801
43105808,47609,43105916,1808
43110808,47593,43110918,1789
43115808,47623,43115916,1840
43120808,47657,43120918,1793
43125808,47678,43125915,1854
43130808,47701,43130918,1875
43136808,47741,43136916,1906
43141808,47754,43141918,1857
43146808,47767,43146916,2041
43151808,47795,43151918,2542
43156808,47840,43156916,3599
43161808,47809,43161918,4095
43166808,47849,43166916,4095
43171808,47881,43171918,4095
43176808,47883,43176916,4095
43181808,47919,43181918,2402
43186808,47915,43186916,1565
43191808,47940,43191918,1579
43196808,47970,43196916,1798
43201808,48019,43201918,1777
43206808,48013,43206916,1782
43211808,48035,43211918,1770
43216808,48063,43216916,1728
43221808,48098,43221918,1685
43226808,48111,43226916,1742
43231808,48144,43231918,1758
43236808,48172,43236916,1803
43241808,48180,43241917,1745
43246808,48221,43246915,1708
43251808,48222,43251918,1774
43256808,48219,43256916,1787
43261808,48239,43261918,1726
43266808,48288,43266916,1786
43271808,48319,43271918,1767
43276808,48329,43276915,1808
43281808,48354,43281918,1779
43286808,48322,43286916,1791
43291808,48411,43291918,1835
43296808,48436,43296916,1898
43301808,48482,43301918,1861
43306808,48507,43306916,1887
43311808,48505,43311918,1872
43316808,48549,43316915,1909
43321808,48581,43321918,1926
43326808,48553,43326915,1938
43331808,48579,43331918,2030
43336808,48620,43336916,2006
43341808,48624,43341918,2032
43346808,48687,43346916,2019
43351808,48697,43351918,2075
43356808,48705,43356916,2138
43361808,48759,43361918,2077
43366808,48769,43366916,2162
43371808,48780,43371918,2221
43376808,48826,43376916,2275
43381808,48817,43381918,2261
43386808,48837,43386916,2210
43391808,48775,43391918,2272
43396808,48760,43396916,2311
43401808,48731,43401918,2240
43406808,48655,43406916,2230
43411808,48583,43411918,2248
43416808,48449,43416916,2274
43421808,48321,43421918,2194
43426808,48203,43426916,2128
43431808,48022,43431918,2115
43436808,47844,43436916,2093
43441808,47671,43441918,1962
43446808,47493,43446916,1887
43451808,47321,43451918,1840
43456808,47136,43456916,1823
43461808,46957,43461918,1659
43466808,46806,43466915,1671
43471808,46621,43471918,1662
43476808,46480,43476916,1662
43481808,46375,43481918,1581
43486808,46244,43486916,1589
43491808,46172,43491918,1523
43496808,46031,43496916,1583
43501808,45961,43501918,1498
43506808,45884,43506916,1535
43511808,45868,43511918,1610
43516808,45845,43516916,1615
43521808,45783,43521918,1585
43526808,45808,43526916,1555
43531808,45750,43531918,1602
43536808,45763,43536915,1594
43541808,45754,43541917,1619
43546808,45806,43546916,1551
43551808,45748,43551918,1590
43556808,45778,43556916,1604
43561808,45765,43561918,1600
43566808,45840,43566916,1635
43571808,45864,43571918,1653
43576808,45870,43576916,1646
43581808,45864,43581918,1656
43586808,45930,43586916,1623
43591808,45929,43591918,1599
43596808,46009,43596915,1666
43601808,46031,43601918,1646
43606808,46118,43606916,1662
43611808,46160,43611918,1710
43616808,46205,43616916,1718
43621808,46256,43621918,1594
43626808,46290,43626916,1589
43631808,46345,43631918,1644
43636808,46389,43636916,1631
43641808,46449,43641918,1603
43646808,46460,43646916,1654
43651808,46538,43651918,1673
43656808,46569,43656916,1668
43661808,46620,43661918,1633
43666808,46614,43666916,1591
43671808,46634,43671918,1616
43676808,46685,43676916,1650
43681808,46716,43681918,1638
43686808,46779,43686916,1639
43691808,46777,43691918,1663
43696808,46763,43696916,1712
43701808,46741,43701918,1653
43706808,46754,43706916,1616
43711808,46742,43711918,1644
43716808,46756,43716916,1707
43721808,46784,43721918,1597
43726808,46778,43726916,1635
43731808,46791,43731918,1680
43736808,46746,43736916,1678
43741808,46754,43741918,1609
43746808,46729,43746915,1693
43751808,46725,43751918,1726
43756808,46672,43756916,1697
43761808,46682,43761918,1648
43766808,46668,43766916,1682
43771808,46641,43771918,1744
43776808,46625,43776916,1710
43781808,46608,43781918,1689
43786808,46600,43786916,1682
43791808,46597,43791918,1742
43796808,46601,43796916,1753
43801808,46570,43801918,1727
43806808,46566,43806916,1759
43811808,46560,43811918,1766
43816808,46558,43816915,1732
43821808,46589,43821918,1691
43827808,46555,43827915,1751
43832808,46561,43832918,1777
43837808,46589,43837916,1766
43842808,46583,43842918,1760
43847808,46564,43847915,1747
43852808,46570,43852918,1791
43857808,46582,43857916,1783
43862808,46595,43862918,1767
43867808,46605,43867916,1726
43872808,46646,43872918,1776
43877808,46656,43877916,1786
43882808,46688,43882918,1761
43887808,46675,43887916,1777
43892808,46743,43892918,1826
43897808,46734,43897916,1887
43902808,46788,43902918,1845
43907808,46804,43907916,1879
43912808,46840,43912918,1917
43917808,46852,43917916,1940
43922808,46891,43922918,1798
43927808,46912,43927916,1831
43932808,46938,43932918,1829
43937808,46974,43937915,1869
43942808,47029,43942918,1808
43947808,47084,43947916,1767
43952808,47108,43952918,1872
43957808,47161,43957916,1838
43962808,47184,43962918,1787
43967808,47190,43967916,1767
43972808,47289,43972918,1840
43977808,47273,43977915,1860
43982808,47320,43982918,1799
43987808,47341,43987916,1824
43992808,47406,43992918,1831
43997808,47460,43997916,1871
44002808,47471,44002918,1793
44007808,47521,44007916,1830
44012808,47554,44012918,1925
44017808,47585,44017916,1936
44022808,47609,44022918,1985
44027808,47653,44027915,2467
44032808,47669,44032918,3550
44037808,47715,44037916,4095
44042808,47757,44042918,4095
44047808,47789,44047916,4095
44052808,47825,44052918,4095
44057808,47873,44057916,2322
44062808,47947,44062918,1514
44067808,47942,44067916,1591
44072808,47980,44072918,1808
44077808,48002,44077916,1831
44082808,48069,44082918,1763
44087808,48068,44087916,1731
44092808,48170,44092918,1757
44097808,48176,44097916,1776
44102808,48191,44102918,1674
44107808,48212,44107916,1748
44112808,48257,44112918,1799
44117808,48288,44117916,1774
44122808,48285,44122918,1711
44127808,48356,44127916,1778
