12537812,44063,12537922,2305
12542812,44047,12542919,2303
12547812,43973,12547922,2379
12552812,43898,12552920,2330
12557812,43781,12557922,2227
12562812,43660,12562919,2255
12567812,43530,12567922,2309
12572812,43398,12572919,2239
12577812,43234,12577922,2113
12582812,43052,12582919,2046
12587812,42867,12587922,2043
12592812,42718,12592919,1926
12597812,42497,12597922,1799
12602812,42341,12602920,1774
12607812,42167,12607922,1837
12612812,41984,12612919,1744
12617812,41839,12617921,1566
12622812,41683,12622919,1605
12627812,41549,12627922,1729
12632812,41396,12632919,1685
12637812,41338,12637922,1562
12642812,41191,12642920,1573
12647812,41134,12647922,1687
12652812,41053,12652919,1573
12657812,41003,12657921,1552
12662812,40989,12662919,1599
12667812,40906,12667922,1698
12672812,40833,12672919,1616
12677812,40838,12677922,1596
12682812,40823,12682920,1598
12687812,40809,12687922,1702
12692812,40824,12692920,1698
12697812,40827,12697922,1646
12702812,40792,12702919,1682
12707812,40828,12707922,1750
12712812,40880,12712919,1734
12717812,40856,12717922,1644
12722812,40872,12722920,1669
12727812,40912,12727922,1743
12732812,40931,12732919,1648
12737812,40959,12737921,1653
12742812,40980,12742919,1653
12747812,41033,12747921,1747
12752812,41034,12752919,1683
12757812,41088,12757922,1664
12762812,41112,12762919,1617
12767812,41163,12767922,1721
12772812,41191,12772919,1695
12777812,41228,12777922,1565
12782812,41268,12782919,1675
12787812,41297,12787921,1777
12792812,41355,12792919,1653
12797812,41391,12797922,1635
12803812,41439,12803920,1628
12808812,41472,12808922,1731
12813812,41526,12813919,1631
12818812,41544,12818921,1597
12823812,41578,12823920,1665
12828812,41631,12828922,1780
12833812,41660,12833919,1690
12838812,41676,12838921,1580
12843812,41697,12843919,1680
12848812,41712,12848922,1768
12853812,41740,12853920,1680
12858812,41775,12858922,1643
12863812,41778,12863919,1676
12868812,41778,12868921,1760
12873812,41764,12873919,1659
12878812,41808,12878922,1603
12883812,41798,12883920,1645
12888812,41780,12888922,1737
12893812,41770,12893920,1649
12898812,41757,12898921,1647
12903812,41763,12903920,1671
12908812,41757,12908922,1725
12913812,41753,12913920,1682
12918812,41764,12918922,1602
12923812,41733,12923919,1667
12928812,41777,12928922,1783
12933812,41779,12933920,1671
12938812,41741,12938922,1663
12943812,41753,12943920,1735
12948812,41713,12948922,1808
12953812,41766,12953920,1680
12958812,41790,12958922,1679
12963812,41787,12963920,1738
12968812,41792,12968922,1766
12973812,41801,12973919,1696
12978812,41812,12978922,1712
12983812,41825,12983920,1727
12988812,41832,12988922,1781
12993812,41877,12993920,1717
12998812,41894,12998922,1735
13003812,41892,13003920,1769
13008812,41938,13008922,1827
13013812,41948,13013919,1771
13018812,41978,13018922,1687
13023812,42031,13023920,1751
13028812,42053,13028921,1776
13033812,42050,13033920,1730
13038812,42095,13038922,1674
13043812,42174,13043919,1807
13048812,42218,13048922,1844
13053812,42242,13053919,1749
13058812,42277,13058922,1797
13063812,42294,13063920,1872
13068812,42383,13068922,1977
13073812,42435,13073920,1872
13078812,42444,13078921,1850
13083812,42489,13083920,1866
13088812,42544,13088922,1938
13093812,42559,13093919,1859
13098812,42641,13098922,1766
13103812,42666,13103920,1818
13108812,42706,13108922,1872
13113812,42735,13113920,1802
13118812,42789,13118922,1775
13123812,42802,13123919,1792
13128812,42821,13128922,1893
13133812,42881,13133919,1824
13138812,42924,13138922,1723
13143812,42990,13143920,1791
13148812,43015,13148922,1903
13153812,43020,13153920,1760
13158812,43062,13158922,1779
13163812,43146,13163920,1822
13168812,43163,13168922,1890
13173812,43217,13173919,1851
13178812,43223,13178921,2007
13183812,43266,13183920,2496
13188812,43328,13188922,3562
13193812,43327,13193920,4095
13198812,43369,13198922,4095
13203812,43399,13203919,4095
13208812,43429,13208922,4095
13213812,43439,13213920,2299
13218812,43472,13218922,1527
13223812,43524,13223919,1582
13228812,43525,13228922,1837
13233812,43591,13233919,1818
13238812,43553,13238922,1724
13243812,43640,13243919,1730
13248812,43600,13248922,1827
13253812,43627,13253920,1659
13258812,43684,13258922,1660
13263812,43698,13263920,1758
13268812,43746,13268922,1840
13273812,43768,13273920,1739
13278812,43809,13278922,1648
13283812,43819,13283920,1765
13288812,43828,13288922,1838
13293812,43832,13293920,1727
13298812,43900,13298921,1707
13303812,43910,13303920,1759
13308812,43969,13308922,1862
13313812,43958,13313920,1777
13318812,43956,13318922,1787
13323812,44038,13323920,1830
13328812,44001,13328922,1936
13333812,44012,13333920,1858
13338812,44016,13338922,1844
13343812,44044,13343919,1877
13348812,44089,13348921,1987
13353812,44074,13353919,1953
13358812,44062,13358922,1931
13363812,44107,13363920,2017
13368812,44095,13368922,2096
13373812,44105,13373920,2000
13378812,44130,13378921,2070
13383812,44163,13383919,2127
13388812,44150,13388922,2264
13393812,44191,13393920,2157
13398812,44187,13398921,2190
13403812,44185,13403919,2294
13408812,44181,13408921,2347
13413812,44157,13413919,2247
13418812,44143,13418922,2208
13423812,44100,13423919,2293
13428812,44058,13428922,2368
13433812,43958,13433919,2247
13438812,43868,13438922,2208
13443812,43738,13443919,2239
13448812,43611,13448922,2288
13453812,43457,13453919,2160
13458812,43302,13458922,2035
13463812,43127,13463919,2022
13468812,42951,13468921,2031
13473812,42762,13473919,1872
13478812,42568,13478921,1796
13483812,42371,13483920,1771
13489812,42201,13489922,1811
13494812,42002,13494919,1622
13499812,41878,13499922,1581
13504812,41722,13504919,1630
13509812,41578,13509921,1631
13514812,41468,13514919,1535
13519812,41393,13519921,1511
13524812,41264,13524919,1585
13529812,41196,13529921,1638
13534812,41133,13534919,1511
13539812,41107,13539922,1552
13544812,41022,13544919,1615
13549812,40993,13549922,1708
13554812,40930,13554920,1526
13559812,40956,13559922,1547
13564812,40929,13564919,1594
13569812,40943,13569922,1679
13574812,40983,13574919,1563
13579812,40970,13579922,1573
13584812,40980,13584920,1662
13589812,41015,13589922,1650
13594812,41067,13594919,1577
13599812,41046,13599922,1571
13604812,41072,13604919,1647
13609812,41157,13609922,1705
13614812,41190,13614919,1584
13619812,41205,13619922,1631
13624812,41246,13624919,1678
13629812,41328,13629922,1711
13634812,41365,13634919,1570
13639812,41420,13639922,1583
13644812,41476,13644919,1685
13649812,41491,13649921,1686
13654812,41531,13654919,1584
13659812,41588,13659922,1590
13664812,41661,13664919,1712
13669812,41711,13669921,1664
13674812,41769,13674919,1625
13679812,41811,13679922,1558
13684812,41862,13684919,1687
13689812,41920,13689921,1669
13694812,41978,13694920,1617
13699812,42017,13699922,1584
13704812,42079,13704920,1680
13709812,42093,13709922,1739
13714812,42126,13714920,1642
13719812,42173,13719921,1615
13724812,42240,13724920,1724
13729812,42264,13729922,1746
13734812,42299,13734919,1602
13739812,42308,13739922,1585
13744812,42332,13744920,1730
13749812,42375,13749922,1762
13754812,42422,13754920,1634
13759812,42413,13759922,1614
13764812,42440,13764919,1723
13769812,42446,13769922,1762
13774812,42408,13774919,1648
13779812,42436,13779922,1657
13784812,42421,13784920,1694
13789812,42446,13789921,1765
13794812,42449,13794919,1714
13799812,42406,13799922,1657
13804812,42451,13804920,1722
13809812,42442,13809922,1805
13814812,42434,13814920,1712
13819812,42433,13819922,1727
13824812,42435,13824919,1775
13829812,42427,13829922,1817
13834812,42424,13834920,1674
13839812,42446,13839922,1651
13844812,42456,13844919,1789
13849812,42459,13849922,1777
13854812,42454,13854919,1665
13859812,42496,13859922,1682
13864812,42470,13864919,1822
13869812,42504,13869922,1787
13874812,42501,13874920,1703
13879812,42517,13879921,1765
13884812,42528,13884919,1776
13889812,42561,13889922,1849
13894812,42573,13894920,1759
13899812,42605,13899922,1683
13904812,42626,13904920,1783
13909812,42607,13909922,1831
13914812,42648,13914919,1724
13919812,42657,13919921,1735
13924812,42723,13924920,1815
13929812,42730,13929922,1855
13934812,42782,13934919,1840
13939812,42829,13939922,1872
13944812,42845,13944920,1925
13949812,42854,13949922,1920
13954812,42934,13954919,1794
13959812,42927,13959922,1795
13964812,42992,13964919,1905
13969812,43067,13969921,1843
13974812,43080,13974920,1765
13979812,43055,13979922,1754
13984812,43128,13984920,1851
13989812,43115,13989921,1875
13994812,43174,13994919,1783
13999812,43163,13999922,1781
14004812,43241,14004920,1872
14009812,43270,14009921,1879
14014812,43308,14014919,1747
14019812,43325,14019922,1742
14024812,43337,14024919,1830
14029812,43392,14029922,1872
14034812,43424,14034920,1761
14039812,43444,14039922,1787
14044812,43506,14044919,1984
14049812,43539,14049921,2160
14054812,43541,14054919,2559
14059812,43605,14059922,3492
14064812,43644,14064919,4095
14069812,43649,14069922,4095
14074812,43690,14074920,4095
14079812,43748,14079922,3855
14084812,43779,14084919,2237
14089812,43819,14089922,1573
14094812,43842,14094919,1579
14099812,43855,14099922,1754
14104812,43912,14104920,1870
14109812,43933,14109922,1834
14114812,43943,14114920,1715
14119812,43978,14119922,1671
14124812,44010,14124920,1775
14129812,44027,14129922,1753
14134812,44045,14134920,1661
14139812,44083,14139922,1660
14144812,44113,14144920,1807
14149812,44133,14149922,1776
14155812,44171,14155919,1652
14160812,44205,14160922,1709
14165812,44224,14165919,1808
14170812,44235,14170922,1789
14175812,44249,14175919,1738
14180812,44288,14180921,1747
14185812,44304,14185919,1889
14190812,44301,14190922,1855
14195812,44350,14195920,1805
14200812,44390,14200922,1799
14205812,44381,14205919,1911
14210812,44407,14210922,1934
14215812,44434,14215920,1887
14220812,44426,14220921,1941
14225812,44467,14225919,2014
14230812,44493,14230922,2015
14235812,44511,14235920,1959
14240812,44538,14240922,2019
14245812,44543,14245919,2155
14250812,44569,14250922,2078
14255812,44593,14255920,2103
14260812,44652,14260922,2113
14265812,44659,14265919,2238
14270812,44693,14270921,2241
14275812,44706,14275920,2214
14280812,44800,14280922,2231
14285812,44717,14285919,2336
14290812,44709,14290922,2336
14295812,44674,14295920,2250
14300812,44673,14300921,2256
14305812,44612,14305919,2314
14310812,44589,14310921,2288
14315812,44499,14315920,2177
14320812,44378,14320921,2140
14325812,44254,14325919,2197
14330812,44127,14330922,2131
14335812,43980,14335919,1926
14340812,43845,14340921,1855
14345812,43679,14345919,1902
14350812,43512,14350922,1753
14355812,43352,14355920,1627
14360812,43171,14360922,1616
14365812,43035,14365919,1740
14370812,42951,14370922,1621
14375812,42764,14375919,1558
14380812,42675,14380922,1485
14385812,42570,14385920,1657
14390812,42516,14390922,1554
14395812,42431,14395919,1503
14400812,42339,14400922,1509
14405812,42269,14405920,1622
14410812,42261,14410921,1629
14415812,42232,14415920,1547
14420812,42213,14420922,1531
14425812,42167,14425920,1621
14430812,42178,14430922,1598
14435812,42169,14435919,1562
14440812,42181,14440922,1525
14445812,42185,14445919,1623
14450812,42212,14450922,1615
14455812,42244,14455919,1519
14460812,42266,14460922,1562
14465812,42311,14465920,1654
14470812,42304,14470921,1611
14475812,42359,14475919,1535
14480812,42389,14480922,1552
14485812,42412,14485920,1656
14490812,42453,14490922,1682
14495812,42515,14495919,1530
14500812,42532,14500922,1591
14505812,42574,14505920,1695
14510812,42620,14510921,1646
14515812,42668,14515919,1520
14520812,42735,14520922,1532
14525812,42785,14525919,1695
14530812,42840,14530922,1621
14535812,42842,14535920,1575
14540812,42909,14540922,1587
14545812,42968,14545919,1729
14550812,42998,14550922,1600
14555812,43034,14555919,1595
14560812,43079,14560921,1583
14565812,43113,14565919,1732
14570812,43176,14570921,1632
14575812,43223,14575919,1566
14580812,43201,14580921,1584
14585812,43247,14585919,1712
14590812,43245,14590921,1623
14595812,43288,14595920,1584
14600812,43304,14600921,1584
14605812,43352,14605920,1663
14610812,43367,14610922,1663
14615812,43383,14615919,1616
14620812,43389,14620922,1638
14625812,43415,14625920,1728
14630812,43429,14630922,1697
14635812,43385,14635919,1561
14640812,43392,14640922,1604
14645812,43358,14645919,1709
14650812,43356,14650922,1644
14655812,43356,14655919,1611
14660812,43326,14660922,1600
14665812,43278,14665920,1766
14670812,43251,14670922,1654
14675812,43242,14675919,1617
14680812,43211,14680922,1648
14685812,43240,14685920,1776
14690812,43170,14690921,1673
14695812,43128,14695919,1634
14700812,43091,14700922,1673
14705812,43096,14705920,1787
14710812,43125,14710922,1671
14715812,43094,14715920,1605
14720812,43078,14720921,1663
14725812,43074,14725920,1762
14730812,43089,14730921,1737
14735812,43076,14735919,1647
14740812,43068,14740922,1709
14745812,43098,14745920,1795
14750812,43092,14750922,1714
14755812,43103,14755919,1702
14760812,43097,14760922,1686
14765812,43107,14765920,1806
14770812,43116,14770922,1792
14775812,43107,14775919,1787
14780812,43133,14780922,1803
14785812,43168,14785919,1927
14790812,43153,14790922,1861
14795812,43184,14795919,1801
14800812,43209,14800922,1774
14805812,43241,14805920,1819
14810812,43212,14810922,1767
14815812,43244,14815919,1731
14820812,43270,14820921,1738
14826812,43294,14826919,1901
14831812,43310,14831922,1749
14836812,43331,14836919,1709
14841812,43355,14841922,1769
14846812,43358,14846920,1828
14851812,43388,14851922,1735
14856812,43390,14856919,1679
14861812,43424,14861921,1776
14866812,43430,14866920,1845
14871812,43460,14871921,1751
14876812,43487,14876919,1776
14881812,43501,14881922,1847
14886812,43522,14886919,1983
14891812,43531,14891922,2042
14896812,43568,14896920,2393
14901812,43581,14901922,3200
14906812,43620,14906919,4095
14911812,43662,14911922,4095
14916812,43655,14916919,4095
14921812,43701,14921922,3482
14926812,43665,14926919,2015
14931812,43748,14931921,1365
14936812,43761,14936920,1474
14941812,43795,14941921,1742
14946812,43841,14946920,1859
14951812,43874,14951922,1774
14956812,43885,14956919,1744
14961812,43906,14961921,1778
14966812,43902,14966919,1776
14971812,44006,14971922,1740
14976812,44000,14976919,1747
14981812,44019,14981922,1771
14986812,44057,14986919,1808
14991812,44071,14991922,1776
14996812,44099,14996920,1739
15001812,44110,15001922,1786
15006812,44111,15006920,1886
15011812,44157,15011922,1807
15016812,44185,15016919,1802
15021812,44222,15021922,1845
15026812,44202,15026919,1930
15031812,44222,15031922,1803
15036812,44254,15036920,1793
15041812,44280,15041921,1873
15046812,44308,15046919,2034
15051812,44321,15051922,1867
15056812,44335,15056919,1872
15061812,44382,15061922,1961
15066812,44385,15066919,2022
15071812,44413,15071922,2000
15076812,44449,15076919,1951
15081812,44464,15081922,2054
15086812,44495,15086919,2191
15091812,44528,15091922,2133
15096812,44574,15096919,2090
15101812,44579,15101922,2171
15106812,44578,15106919,2293
15111812,44625,15111921,2206
15116812,44632,15116920,2243
15121812,44652,15121921,2285
15126812,44690,15126919,2375
15131812,44656,15131922,2307
15136812,44619,15136919,2282
15141812,44622,15141922,2353
15146812,44568,15146919,2394
15151812,44477,15151922,2271
15156812,44415,15156920,2224
15161812,44306,15161922,2223
15166812,44216,15166920,2285
15171812,44087,15171922,2128
15176812,43956,15176920,1998
15181812,43780,15181922,1935
15186812,43657,15186920,1973
15191812,43456,15191922,1842
15196812,43257,15196920,1741
15201812,43129,15201922,1776
15206812,42947,15206920,1806
15211812,42783,15211921,1669
15216812,42619,15216920,1629
15221812,42508,15221922,1612
15226812,42338,15226920,1722
15231812,42211,15231921,1598
15236812,42133,15236919,1583
15241812,42032,15241922,1591
15246812,41995,15246919,1680
15251812,41855,15251922,1566
15256812,41814,15256920,1543
15261812,41756,15261922,1618
15266812,41710,15266919,1716
15271812,41691,15271922,1648
15276812,41672,15276919,1583
15281812,41662,15281922,1685
15286812,41659,15286920,1748
15291812,41666,15291922,1712
15296812,41696,15296919,1605
15301812,41688,15301922,1664
15306812,41709,15306919,1744
15311812,41715,15311922,1623
15316812,41761,15316919,1616
15321812,41754,15321922,1702
15326812,41832,15326919,1808
15331812,41851,15331922,1659
15336812,41906,15336920,1654
15341812,41883,15341922,1681
15346812,41981,15346919,1718
15351812,42018,15351922,1678
15356812,42078,15356920,1639
15361812,42084,15361922,1700
15366812,42120,15366919,1726
15371812,42171,15371922,1617
15376812,42210,15376920,1618
15381812,42276,15381921,1615
15386812,42316,15386919,1729
15391812,42379,15391921,1697
15396812,42435,15396919,1599
15401812,42495,15401922,1648
15406812,42531,15406919,1699
15411812,42579,15411921,1681
15416812,42619,15416919,1623
15421812,42658,15421922,1610
15426812,42688,15426919,1803
15431812,42718,15431922,1677
15436812,42750,15436919,1593
15441812,42751,15441922,1707
15446812,42806,15446920,1781
15451812,42811,15451922,1632
15456812,42849,15456920,1619
15461812,42874,15461922,1650
15466812,42877,15466919,1760
15471812,42901,15471922,1675
15476812,42915,15476919,1680
15481812,42892,15481921,1679
15486812,42883,15486919,1790
15491812,42892,15491922,1722
15497812,42868,15497920,1646
15502812,42866,15502922,1709
15507812,42851,15507919,1744
15512812,42864,15512922,1711
15517812,42869,15517919,1638
15522812,42821,15522922,1759
15527812,42836,15527920,1776
15532812,42853,15532922,1678
15537812,42825,15537919,1719
15542812,42816,15542921,1717
15547812,42804,15547920,1855
15552812,42841,15552922,1714
15557812,42838,15557920,1637
15562812,42820,15562921,1750
15567812,42819,15567919,1815
15572812,42806,15572922,1701
15577812,42853,15577919,1682
15582812,42843,15582922,1728
15587812,42862,15587920,1792
15592812,42880,15592922,1742
15597812,42883,15597919,1709
15602812,42940,15602922,1762
15607812,42929,15607919,1875
15612812,42944,15612922,1853
15617812,42993,15617919,1813
15622812,43054,15622921,1888
15627812,43058,15627919,1921
15632812,43049,15632921,1839
15637812,43100,15637919,1805
15642812,43164,15642922,1877
15647812,43184,15647920,1872
15652812,43219,15652922,1762
15657812,43269,15657920,1706
15662812,43306,15662922,1862
15667812,43359,15667919,1903
15672812,43360,15672922,1760
15677812,43421,15677920,1767
15682812,43434,15682921,1822
15687812,43480,15687920,1849
15692812,43548,15692922,1777
15697812,43560,15697920,1719
15702812,43617,15702922,1809
15707812,43632,15707919,1917
15712812,43688,15712922,1802
15717812,43746,15717919,1808
15722812,43754,15722922,1866
15727812,43797,15727920,2015
15732812,43868,15732921,2288
15737812,43949,15737919,3114
15742812,43943,15742922,4095
15747812,43934,15747920,4095
15752812,44026,15752922,4095
15757812,44050,15757920,4047
15762812,44122,15762922,2353
15767812,44181,15767919,1559
15772812,44255,15772922,1508
15777812,44295,15777920,1767
15782812,44290,15782922,1850
15787812,44323,15787919,1862
15792812,44380,15792922,1744
15797812,44468,15797920,1705
15802812,44479,15802922,1795
15807812,44548,15807919,1825
15812812,44576,15812922,1737
15817812,44596,15817919,1713
15822812,44632,15822922,1790
15827812,44665,15827920,1838
15832812,44694,15832921,1719
15837812,44730,15837919,1717
15842812,44770,15842922,1790
15847812,44803,15847919,1859
15852812,44800,15852922,1745
15857812,44862,15857920,1767
15862812,44894,15862922,1863
15867812,44901,15867920,1872
15872812,44949,15872922,1808
15877812,44971,15877920,1777
15882812,44991,15882922,1925
15887812,45071,15887919,1949
15892812,45082,15892922,1837
15897812,45064,15897920,1911
15902812,45089,15902922,1997
15907812,45122,15907919,2032
15912812,45167,15912922,1984
15917812,45194,15917920,1987
15922812,45167,15922922,2127
15927812,45206,15927920,2162
15932812,45231,15932922,2093
15937812,45237,15937919,2137
15942812,45260,15942922,2255
15947812,45280,15947920,2302
15952812,45338,15952922,2232
15957812,45323,15957920,2198
15962812,45317,15962922,2283
15967812,45331,15967919,2346
15972812,45304,15972921,2199
15977812,45267,15977919,2242
15982812,45215,15982922,2326
15987812,45147,15987919,2292
15992812,45049,15992922,2194
15997812,44944,15997919,2170
16002812,44832,16002922,2182
16007812,44717,16007920,2151
16012812,44538,16012922,1977
16017812,44388,16017919,1895
16022812,44205,16022922,1922
16027812,44058,16027919,1875
16032812,43878,16032922,1696
16037812,43683,16037920,1648
16042812,43501,16042922,1719
16047812,43369,16047920,1658
16052812,43217,16052921,1582
16057812,43083,16057919,1584
16062812,42985,16062921,1674
16067812,42881,16067919,1600
16072812,42754,16072922,1509
16077812,42694,16077919,1526
16082812,42643,16082922,1622
16087812,42595,16087919,1696
16092812,42486,16092921,1581
16097812,42482,16097920,1510
16102812,42423,16102922,1674
16107812,42374,16107919,1699
16112812,42394,16112922,1552
16117812,42365,16117919,1599
16122812,42413,16122922,1697
16127812,42415,16127920,1731
16132812,42402,16132921,1584
16137812,42448,16137919,1602
16142812,42416,16142922,1712
16147812,42465,16147920,1703
16152812,42487,16152922,1639
16157812,42490,16157920,1599
16162812,42518,16162922,1725
16168812,42566,16168920,1699
16173812,42600,16173922,1618
16178812,42614,16178919,1618
16183812,42677,16183922,1706
16188812,42681,16188919,1686
16193812,42749,16193922,1605
16198812,42773,16198919,1606
16203812,42800,16203922,1747
16208812,42832,16208920,1715
16213812,42868,16213922,1634
16218812,42895,16218920,1607
16223812,42955,16223922,1691
16228812,42979,16228920,1687
16233812,43034,16233922,1599
16238812,43062,16238920,1609
16243812,43108,16243922,1733
16248812,43153,16248919,1703
16253812,43177,16253921,1581
16258812,43242,16258919,1613
16263812,43242,16263921,1713
16268812,43279,16268919,1675
16273812,43357,16273922,1564
16278812,43368,16278920,1619
16283812,43388,16283921,1726
16288812,43376,16288920,1703
16293812,43456,16293922,1616
16298812,43432,16298920,1649
16303812,43450,16303921,1794
16308812,43450,16308919,1691
16313812,43451,16313922,1600
16318812,43492,16318919,1603
16323812,43518,16323922,1726
16328812,43499,16328920,1739
16333812,43495,16333922,1637
16338812,43505,16338919,1674
16343812,43471,16343922,1782
16348812,43490,16348920,1713
16353812,43482,16353922,1647
16358812,43432,16358919,1637
16363812,43445,16363922,1786
16368812,43481,16368919,1700
16373812,43421,16373921,1675
16378812,43450,16378919,1674
16383812,43423,16383922,1791
16388812,43479,16388919,1733
16393812,43475,16393922,1648
16398812,43468,16398920,1665
16403812,43482,16403922,1814
16408812,43539,16408919,1753
16413812,43530,16413922,1713
16418812,43527,16418920,1663
16423812,43545,16423922,1782
16428812,43568,16428920,1733
16433812,43617,16433922,1629
16438812,43631,16438919,1708
16443812,43635,16443922,1815
16448812,43682,16448919,1827
16453812,43702,16453922,1775
16458812,43748,16458919,1754
16463812,43756,16463922,1946
16468812,43772,16468919,1878
16473812,43817,16473922,1770
16478812,43845,16478920,1808
16483812,43865,16483921,1883
16488812,43944,16488920,1826
16493812,43921,16493921,1751
16498812,43943,16498919,1758
16503812,43991,16503922,1893
16508812,44029,16508919,1807
16513812,44026,16513922,1728
16518812,44072,16518919,1769
16523812,44072,16523922,1887
16528812,44150,16528919,1819
16533812,44194,16533922,1746
16538812,44213,16538920,1825
16543812,44253,16543922,1846
16548812,44270,16548920,1850
16553812,44320,16553922,1781
16558812,44309,16558919,1872
16563812,44366,16563922,1951
16568812,44389,16568919,1949
16573812,44401,16573921,1973
16578812,44417,16578919,2416
16583812,44464,16583922,3455
16588812,44499,16588920,4095
16593812,44491,16593922,4095
16598812,44534,16598919,4095
16603812,44529,16603922,4095
16608812,44570,16608919,2325
16613812,44620,16613922,1488
16618812,44645,16618920,1562
16623812,44680,16623921,1840
16628812,44711,16628919,1861
16633812,44736,16633922,1774
16638812,44780,16638920,1706
16643812,44790,16643922,1803
16648812,44804,16648920,1774
16653812,44851,16653922,1673
16658812,44884,16658920,1682
16663812,44909,16663922,1829
16668812,44932,16668919,1787
16673812,44913,16673921,1667
16678812,45003,16678920,1676
16683812,44969,16683922,1875
16688812,45042,16688919,1808
16693812,45024,16693922,1707
16698812,45057,16698919,1750
16703812,45107,16703922,1845
16708812,45086,16708919,1852
16713812,45082,16713922,1747
16718812,45086,16718919,1823
16723812,45090,16723921,1967
16728812,45134,16728919,1866
16733812,45147,16733922,1891
16738812,45146,16738920,1882
16743812,45169,16743922,1989
16748812,45207,16748920,1966
16753812,45202,16753921,1966
16758812,45214,16758919,1986
16763812,45199,16763922,2117
16768812,45260,16768919,2123
16773812,45287,16773922,2057
16778812,45291,16778919,2070
16783812,45293,16783922,2270
16788812,45342,16788919,2204
16793812,45335,16793922,2176
16798812,45332,16798920,2224
16803812,45347,16803921,2363
16808812,45316,16808919,2311
16813812,45320,16813922,2218
16818812,45283,16818920,2257
16823812,45218,16823922,2368
16828812,45131,16828919,2270
16833812,45050,16833922,2221
16839812,44957,16839920,2227
16844812,44797,16844921,2243
16849812,44687,16849919,2115
16854812,44497,16854922,2023
16859812,44344,16859919,2003
16864812,44193,16864922,2061
16869812,43988,16869920,1843
16874812,43839,16874922,1791
16879812,43626,16879919,1790
16884812,43493,16884922,1850
16889812,43281,16889919,1676
16894812,43152,16894922,1648
16899812,43049,16899919,1627
16904812,42920,16904922,1662
16909812,42802,16909919,1616
16914812,42698,16914922,1509
16919812,42591,16919919,1600
16924812,42514,16924922,1685
16929812,42434,16929920,1618
16934812,42426,16934921,1563
16939812,42331,16939919,1630
16944812,42346,16944922,1732
16949812,42302,16949919,1601
16954812,42345,16954922,1570
16959812,42304,16959919,1658
16964812,42344,16964921,1755
16969812,42303,16969919,1687
16974812,42358,16974921,1584
16979812,42362,16979919,1600
16984812,42389,16984922,1767
16989812,42449,16989919,1675
16994812,42438,16994922,1623
16999812,42502,16999920,1646
17004812,42534,17004922,1741
17009812,42545,17009919,1671
17014812,42578,17014921,1609
17019812,42626,17019920,1620
17024812,42689,17024922,1712
17029812,42694,17029919,1616
17034812,42751,17034922,1627
17039812,42812,17039920,1600
17044812,42854,17044922,1712
17049812,42905,17049920,1614
17054812,42956,17054921,1564
17059812,43034,17059920,1653
17064812,43061,17064921,1699
17069812,43099,17069920,1631
17074812,43173,17074922,1631
17079812,43257,17079920,1671
17084812,43297,17084922,1796
17089812,43303,17089920,1655
17094812,43377,17094922,1615
17099812,43418,17099919,1653
17104812,43501,17104922,1728
17109812,43535,17109920,1698
17114812,43567,17114921,1645
17119812,43592,17119920,1622
17124812,43620,17124921,1758
17129812,43657,17129920,1655
17134812,43678,17134922,1634
17139812,43703,17139920,1654
17144812,43704,17144922,1779
17149812,43701,17149920,1647
17154812,43705,17154922,1671
17159812,43741,17159920,1637
17164812,43694,17164922,1729
17169812,43733,17169919,1655
17174812,43726,17174922,1629
17179812,43726,17179919,1628
17184812,43703,17184922,1813
17189812,43715,17189919,1681
17194812,43731,17194922,1616
17199812,43709,17199920,1671
17204812,43714,17204922,1785
17209812,43687,17209920,1669
17214812,43684,17214922,1661
17219812,43670,17219919,1730
17224812,43670,17224922,1767
17229812,43701,17229920,1655
17234812,43658,17234921,1625
17239812,43624,17239919,1682
17244812,43641,17244922,1760
17249812,43659,17249919,1697
17254812,43698,17254922,1704
17259812,43697,17259919,1702
17264812,43663,17264921,1853
17269812,43693,17269919,1712
17274812,43643,17274922,1672
17279812,43680,17279919,1707
17284812,43693,17284921,1773
17289812,43741,17289920,1735
17294812,43744,17294922,1657
17299812,43795,17299919,1737
17304812,43770,17304921,1872
17309812,43832,17309919,1808
17314812,43840,17314921,1708
17319812,43873,17319920,1858
17324812,43897,17324922,1930
17329812,43932,17329919,1850
17334812,43915,17334921,1855
17339812,43990,17339919,1859
17344812,43990,17344922,1878
17349812,44022,17349919,1792
17354812,44005,17354921,1770
17359812,44077,17359920,1802
17364812,44058,17364922,1871
17369812,44125,17369920,1733
17374812,44134,17374922,1744
17379812,44133,17379919,1766
17384812,44170,17384922,1859
17389812,44171,17389920,1782
17394812,44205,17394921,1801
17399812,44258,17399919,1791
17404812,44274,17404921,1894
17409812,44294,17409920,1786
17414812,44313,17414922,1731
17419812,44350,17419920,1790
17424812,44357,17424922,1936
17429812,44386,17429919,1877
17434812,44437,17434922,1945
17439812,44440,17439919,2287
17444812,44447,17444921,3066
17449812,44504,17449919,4095
17454812,44506,17454922,4095
17459812,44553,17459920,4095
17464812,44576,17464922,4095
17469812,44589,17469919,2849
17474812,44640,17474921,1657
17479812,44677,17479919,1519
17484812,44687,17484921,1754
17489812,44718,17489919,1713
17494812,44743,17494922,1699
17499812,44726,17499920,1793
17504812,44772,17504921,1777
17509812,44790,17509920,1669
17515812,44797,17515921,1648
17520812,44858,17520920,1734
17525812,44868,17525921,1781
17530812,44866,17530919,1706
17535812,44901,17535921,1743
17540812,44923,17540920,1776
17545812,44914,17545922,1776
17550812,44945,17550920,1714
17555812,44934,17555922,1746
17560812,44952,17560919,1825
17565812,44959,17565922,1889
17570812,45026,17570919,1793
17575812,45010,17575922,1738
17580812,45037,17580919,1817
17585812,45041,17585921,1877
17590812,45048,17590919,1855
17595812,45091,17595922,1856
17600812,45079,17600920,1929
17605812,45117,17605922,1983
17610812,45138,17610920,1887
17615812,45164,17615922,1895
17620812,45161,17620919,2014
17625812,45188,17625922,2113
17630812,45210,17630919,1974
17635812,45229,17635922,2016
17640812,45264,17640920,2150
17645812,45308,17645922,2209
17650812,45313,17650919,2119
17655812,45299,17655922,2165
17660812,45334,17660919,2284
17665812,45334,17665921,2299
17670812,45370,17670919,2251
17675812,45376,17675922,2185
17680812,45347,17680919,2304
17685812,45292,17685922,2336
17690812,45253,17690919,2210
17695812,45174,17695921,2184
17700812,45085,17700919,2259
17705812,44961,17705922,2275
17710812,44860,17710919,2146
17715812,44762,17715922,2075
17720812,44600,17720919,2089
17725812,44433,17725922,2035
17730812,44262,17730919,1837
17735812,44101,17735922,1797
17740812,43953,17740920,1808
17745812,43835,17745921,1776
17750812,43608,17750919,1600
17755812,43495,17755922,1614
17760812,43346,17760919,1648
17765812,43279,17765922,1619
17770812,43136,17770919,1552
17775812,43045,17775921,1525
17780812,42975,17780919,1582
17785812,42885,17785922,1644
17790812,42827,17790920,1578
17795812,42811,17795922,1522
17800812,42770,17800920,1637
17805812,42734,17805922,1683
17810812,42726,17810920,1535
17815812,42692,17815922,1527
17820812,42697,17820919,1675
17825812,42718,17825922,1707
17830812,42694,17830919,1563
17835812,42748,17835921,1520
17840812,42735,17840919,1647
17845812,42772,17845922,1699
17850812,42801,17850919,1610
17855812,42834,17855922,1522
17860812,42847,17860919,1687
17865812,42875,17865922,1653
17870812,42914,17870919,1618
17875812,42934,17875922,1533
17880812,42988,17880919,1640
17885812,43029,17885922,1639
17890812,43073,17890919,1590
17895812,43122,17895922,1523
17900812,43176,17900919,1630
17905812,43188,17905922,1694
17910812,43254,17910920,1597
17915812,43270,17915921,1635
17920812,43336,17920920,1631
17925812,43375,17925921,1667
17930812,43478,17930919,1547
17935812,43450,17935922,1587
17940812,43519,17940919,1611
17945812,43559,17945922,1715
17950812,43603,17950920,1566
17955812,43615,17955922,1566
17960812,43637,17960919,1634
17965812,43644,17965922,1674
17970812,43702,17970919,1552
17975812,43717,17975921,1530
17980812,43761,17980920,1686
17985812,43754,17985921,1699
17990812,43803,17990920,1643
17995812,43781,17995921,1563
18000812,43803,18000920,1679
18005812,43776,18005922,1702
18010812,43812,18010919,1657
18015812,43820,18015922,1602
18020812,43821,18020919,1734
18025812,43796,18025921,1712
18030812,43772,18030920,1588
18035812,43760,18035921,1607
18040812,43740,18040920,1677
18045812,43760,18045922,1728
18050812,43738,18050919,1669
18055812,43717,18055922,1637
18060812,43655,18060920,1735
18065812,43738,18065922,1754
18070812,43714,18070919,1667
18075812,43599,18075922,1602
18080812,43612,18080919,1777
18085812,43611,18085921,1802
18090812,43565,18090920,1690
18095812,43556,18095922,1672
18100812,43550,18100919,1741
18105812,43595,18105922,1801
18110812,43576,18110919,1648
18115812,43577,18115921,1677
18120812,43575,18120920,1773
18125812,43610,18125922,1790
18130812,43587,18130920,1651
18135812,43595,18135922,1642
18140812,43612,18140920,1757
18145812,43579,18145922,1766
18150812,43632,18150920,1718
18155812,43644,18155922,1722
18160812,43662,18160919,1805
18165812,43680,18165921,1869
18170812,43704,18170919,1755
18175812,43702,18175921,1776
18180812,43740,18180920,1891
18185812,43766,18185921,1887
18190812,43771,18190919,1767
18195812,43763,18195922,1791
18200812,43797,18200919,1857
18205812,43866,18205922,1853
18211812,43847,18211919,1712
18216812,43872,18216922,1766
18221812,43897,18221920,1840
18226812,43902,18226922,1808
18231812,43951,18231920,1764
18236812,43971,18236922,1740
18241812,43988,18241919,1855
18246812,44031,18246922,1791
18251812,44034,18251920,1731
18256812,44029,18256921,1751
18261812,44061,18261919,1867
18266812,44083,18266922,1838
18271812,44113,18271919,1770
18276812,44128,18276921,1835
18281812,44176,18281920,1916
18286812,44199,18286922,1936
18291812,44203,18291920,2073
18296812,44211,18296921,2483
18301812,44268,18301920,3406
18306812,44298,18306922,4095
18311812,44320,18311920,4095
18316812,44325,18316922,4095
18321812,44364,18321920,3537
18326812,44378,18326922,1935
18331812,44383,18331919,1344
18336812,44466,18336922,1493
18341812,44486,18341919,1840
18346812,44528,18346921,1853
18351812,44541,18351920,1738
18356812,44584,18356922,1711
18361812,44621,18361919,1819
18366812,44700,18366922,1795
18371812,44674,18371919,1706
18376812,44673,18376922,1727
18381812,44715,18381919,1857
18386812,44723,18386922,1767
18391812,44744,18391919,1726
18396812,44818,18396922,1773
18401812,44826,18401920,1862
18406812,44839,18406921,1805
18411812,44857,18411919,1787
18416812,44874,18416921,1810
18421812,44931,18421920,1898
18426812,44900,18426921,1856
18431812,44975,18431920,1811
18436812,44993,18436922,1835
18441812,44973,18441920,1963
18446812,45030,18446922,1927
18451812,45074,18451919,1850
18456812,45079,18456922,1904
18461812,45083,18461919,2015
18466812,45100,18466922,2003
18471812,45145,18471919,1980
18476812,45212,18476921,1969
18481812,45259,18481919,2102
18486812,45256,18486921,2122
18491812,45274,18491919,2060
18496812,45314,18496922,2115
18501812,45315,18501920,2243
18506812,45374,18506922,2263
18511812,45356,18511919,2218
18516812,45395,18516921,2234
18521812,45397,18521919,2375
18526812,45399,18526922,2311
18531812,45440,18531919,2282
18536812,45359,18536922,2262
18541812,45356,18541919,2337
18546812,45300,18546922,2289
18551812,45240,18551919,2220
18556812,45138,18556922,2181
18561812,45050,18561919,2294
18566812,44899,18566922,2192
18571812,44838,18571919,2013
18576812,44678,18576922,1968
18581812,44550,18581919,2001
18586812,44366,18586922,1921
18591812,44240,18591919,1776
18596812,44038,18596922,1718
18601812,43923,18601919,1799
18606812,43719,18606922,1733
18611812,43615,18611919,1641
18616812,43477,18616922,1601
18621812,43360,18621920,1681
18626812,43220,18626921,1624
18631812,43164,18631920,1584
18636812,43058,18636922,1583
18641812,42946,18641920,1616
18646812,42857,18646922,1619
18651812,42819,18651920,1553
18656812,42792,18656922,1595
18661812,42760,18661920,1680
18666812,42707,18666922,1629
18671812,42713,18671920,1573
18676812,42695,18676922,1629
18681812,42699,18681920,1722
18686812,42722,18686922,1664
18691812,42711,18691919,1614
18696812,42710,18696921,1631
18701812,42730,18701920,1687
18706812,42738,18706922,1675
18711812,42792,18711919,1603
18716812,42794,18716922,1653
18721812,42848,18721919,1792
18726812,42820,18726922,1701
18731812,42866,18731920,1622
18736812,42906,18736922,1665
18741812,42947,18741919,1726
18746812,43002,18746922,1643
18751812,43014,18751919,1609
18756812,43048,18756922,1636
18761812,43085,18761920,1744
18766812,43116,18766921,1631
18771812,43156,18771920,1584
18776812,43214,18776921,1573
18781812,43226,18781920,1759
18786812,43312,18786922,1689
18791812,43317,18791920,1623
18796812,43399,18796922,1615
18801812,43414,18801920,1712
18806812,43458,18806922,1647
18811812,43513,18811920,1554
18816812,43514,18816922,1567
18821812,43559,18821919,1755
18826812,43572,18826922,1658
18831812,43599,18831920,1621
18836812,43601,18836922,1670
18841812,43613,18841919,1747
18846812,43639,18846922,1644
18851812,43662,18851920,1607
18856812,43642,18856922,1594
18861812,43637,18861920,1755
18866812,43622,18866922,1681
18871812,43631,18871920,1629
18876812,43603,18876922,1670
18881812,43564,18881919,1759
18887812,43576,18887922,1671
18892812,43555,18892919,1631
18897812,43527,18897922,1705
18902812,43509,18902919,1793
18907812,43482,18907922,1687
18912812,43493,18912919,1616
18917812,43461,18917922,1647
18922812,43441,18922919,1811
18927812,43420,18927922,1710
18932812,43388,18932919,1637
18937812,43395,18937922,1683
18942812,43337,18942919,1796
18947812,43330,18947922,1710
18952812,43306,18952920,1667
18957812,43338,18957922,1671
18962812,43327,18962920,1809
18967812,43341,18967921,1744
18972812,43341,18972919,1712
18977812,43336,18977922,1742
18982812,43374,18982920,1806
18987812,43365,18987922,1712
18992812,43415,18992919,1671
18997812,43384,18997921,1744
19002812,43420,19002920,1817
19007812,43426,19007921,1746
19012812,43475,19012920,1648
19017812,43497,19017922,1777
19022812,43468,19022919,1827
19027812,43522,19027922,1783
19032812,43563,19032920,1774
19037812,43604,19037922,1862
19042812,43625,19042919,1959
19047812,43674,19047922,1838
19052812,43689,19052920,1867
19057812,43691,19057921,1873
19062812,43735,19062920,1937
19067812,43773,19067921,1840
19072812,43798,19072920,1733
19077812,43815,19077922,1807
19082812,43868,19082920,1893
19087812,43869,19087921,1820
19092812,43922,19092919,1773
19097812,43943,19097922,1776
19102812,43978,19102919,1847
19107812,44007,19107921,1764
19112812,44057,19112919,1776
19117812,44061,19117922,1781
19122812,44132,19122919,1913
19127812,44187,19127922,1787
19132812,44180,19132919,1792
19137812,44236,19137922,1809
19142812,44265,19142919,1904
19147812,44296,19147922,1850
19152812,44357,19152920,1885
19157812,44413,19157922,2138
19162812,44422,19162919,2784
19167812,44463,19167922,3824
19172812,44484,19172920,4095
19177812,44510,19177922,4095
19182812,44567,19182919,4095
19187812,44592,19187922,3143
19192812,44625,19192919,1750
19197812,44651,19197922,1526
19202812,44690,19202919,1776
19207812,44723,19207921,1795
19212812,44755,19212920,1777
19217812,44789,19217922,1731
19222812,44812,19222920,1837
19227812,44824,19227922,1746
19232812,44847,19232920,1691
19237812,44865,19237922,1758
19242812,44915,19242920,1843
19247812,44929,19247922,1710
19252812,44956,19252919,1701
19257812,44983,19257922,1748
19262812,45028,19262920,1901
19267812,45023,19267922,1728
19272812,45034,19272919,1735
19277812,45056,19277922,1809
19282812,45094,19282919,1885
19287812,45076,19287922,1779
19292812,45099,19292919,1758
19297812,45103,19297922,1853
19302812,45151,19302919,1922
19307812,45126,19307922,1846
19312812,45184,19312919,1841
19317812,45128,19317922,1891
19322812,45178,19322920,1984
19327812,45156,19327922,1950
19332812,45163,19332920,1874
19337812,45227,19337922,1963
19342812,45219,19342919,2086
19347812,45280,19347922,2013
19352812,45257,19352919,2000
19357812,45259,19357922,2105
19362812,45290,19362919,2199
19367812,45319,19367922,2125
19372812,45356,19372920,2113
19377812,45395,19377922,2222
19382812,45372,19382919,2334
19387812,45341,19387922,2239
19392812,45338,19392920,2243
19397812,45313,19397922,2285
19402812,45221,19402920,2384
19407812,45184,19407922,2264
19412812,45125,19412920,2256
19417812,45027,19417922,2287
19422812,44927,19422920,2303
19427812,44750,19427922,2150
19432812,44655,19432920,2078
19437812,44444,19437922,2086
19442812,44259,19442920,2103
19447812,44092,19447922,1871
19452812,43909,19452920,1846
19457812,43748,19457922,1828
19462812,43595,19462919,1811
19467812,43387,19467922,1680
19472812,43256,19472919,1655
19477812,43092,19477922,1623
19482812,42958,19482920,1703
19487812,42840,19487922,1551
19492812,42746,19492919,1535
19497812,42666,19497922,1603
19502812,42561,19502919,1687
19507812,42475,19507922,1600
19512812,42425,19512920,1574
19517812,42348,19517922,1605
19522812,42339,19522920,1701
19527812,42306,19527922,1598
19532812,42283,19532919,1559
19537812,42274,19537922,1699
19542812,42265,19542920,1761
19547812,42282,19547922,1601
19552812,42245,19552920,1584
19557812,42261,19557922,1636
19562812,42274,19562920,1729
19567812,42237,19567922,1666
19572812,42271,19572920,1616
19578812,42284,19578922,1718
19583812,42315,19583919,1766
19588812,42392,19588921,1623
19593812,42356,19593919,1607
19598812,42390,19598922,1699
19603812,42431,19603920,1713
19608812,42444,19608922,1643
19613812,42497,19613919,1601
19618812,42507,19618922,1696
19623812,42547,19623920,1705
19628812,42584,19628922,1595
19633812,42605,19633920,1595
19638812,42634,19638922,1666
19643812,42692,19643919,1716
19648812,42746,19648921,1563
19653812,42744,19653919,1559
19658812,42802,19658922,1680
19663812,42827,19663919,1735
19668812,42902,19668922,1642
19673812,42924,19673920,1567
19678812,42967,19678921,1646
19683812,43009,19683919,1712
19688812,43021,19688921,1635
19693812,43006,19693919,1616
19698812,43077,19698922,1680
19703812,43108,19703919,1715
19708812,43128,19708922,1642
19713812,43144,19713919,1653
19718812,43159,19718921,1663
19723812,43165,19723920,1776
19728812,43186,19728922,1658
19733812,43165,19733919,1617
19738812,43152,19738922,1744
19743812,43161,19743920,1735
19748812,43152,19748922,1589
19753812,43168,19753919,1631
19758812,43144,19758922,1739
19763812,43136,19763920,1767
19768812,43126,19768922,1680
19773812,43111,19773920,1634
19778812,43086,19778921,1740
19783812,43103,19783919,1793
19788812,43115,19788922,1692
19793812,43111,19793920,1664
19798812,43085,19798922,1764
19803812,43110,19803919,1760
19808812,43082,19808922,1735
19813812,43091,19813919,1661
19818812,43090,19818922,1792
19823812,43129,19823920,1814
19828812,43173,19828922,1684
19833812,43166,19833920,1737
19838812,43153,19838922,1781
19843812,43164,19843920,1794
19848812,43228,19848922,1687
19853812,43257,19853920,1705
19858812,43254,19858921,1806
19863812,43296,19863919,1872
19868812,43299,19868922,1691
19873812,43323,19873920,1723
19878812,43339,19878922,1803
19883812,43399,19883920,1887
19888812,43425,19888922,1742
19893812,43475,19893919,1721
19898812,43490,19898922,1808
19903812,43505,19903920,1822
19908812,43524,19908922,1759
19913812,43597,19913919,1680
19918812,43598,19918922,1759
19923812,43620,19923919,1849
19928812,43667,19928922,1788
19933812,43682,19933919,1747
19938812,43705,19938921,1902
19943812,43733,19943919,1935
19948812,43771,19948922,1847
19953812,43807,19953919,1851
19958812,43820,19958921,1945
19963812,43860,19963919,1983
19968812,43907,19968922,1814
19973812,43917,19973920,1845
19978812,43968,19978922,1850
19983812,43967,19983919,1876
19988812,44012,19988921,1825
19993812,44014,19993919,1830
19998812,44055,19998922,1882
20003812,44094,20003919,1916
20008812,44129,20008922,1750
20013812,44173,20013920,1761
20018812,44156,20018922,1860
20023812,44213,20023920,1891
20028812,44196,20028922,1757
20033812,44242,20033919,1750
20038812,44294,20038921,1903
20043812,44279,20043919,1888
20048812,44345,20048922,1883
20053812,44392,20053919,1814
20058812,44371,20058922,1931
20063812,44431,20063919,2256
20068812,44423,20068922,2799
20073812,44509,20073919,4063
20078812,44490,20078922,4095
20083812,44549,20083919,4095
20088812,44494,20088922,4095
20093812,44560,20093919,2953
20098812,44582,20098921,1789
20103812,44642,20103919,1621
20108812,44588,20108922,1632
20113812,44647,20113920,1776
20118812,44615,20118922,1836
20123812,44683,20123920,1841
20128812,44696,20128922,1651
20133812,44676,20133919,1691
20138812,44713,20138922,1762
20143812,44708,20143919,1773
20148812,44723,20148922,1722
20153812,44773,20153920,1702
20158812,44782,20158922,1803
20163812,44771,20163920,1821
20168812,44772,20168922,1691
20173812,44797,20173919,1755
20178812,44850,20178921,1824
20183812,44852,20183919,1840
20188812,44858,20188922,1755
20193812,44851,20193919,1808
20198812,44864,20198922,1899
20203812,44887,20203919,1863
20208812,44899,20208922,1791
20213812,44922,20213919,1863
20218812,44922,20218922,1943
20223812,44933,20223920,1925
20228812,44971,20228921,1874
20233812,44982,20233920,1893
20238812,45007,20238922,1993
20243812,45006,20243919,2063
20248812,45019,20248922,1979
20253812,45035,20253919,1968
20258812,45049,20258922,2112
20263812,45072,20263919,2192
20269812,45100,20269922,2125
20274812,45084,20274920,2131
20279812,45106,20279921,2271
20284812,45075,20284919,2263
20289812,45104,20289922,2194
20294812,45089,20294919,2258
20299812,45061,20299922,2365
20304812,45013,20304919,2338
20309812,44993,20309922,2212
20314812,44895,20314920,2229
20319812,44783,20319922,2343
20324812,44644,20324920,2270
20329812,44569,20329922,2192
20334812,44394,20334920,2127
20339812,44232,20339922,2215
20344812,44087,20344919,2086
20349812,43953,20349921,1989
20354812,43742,20354920,1850
20359812,43561,20359922,1936
20364812,43397,20364920,1854
20369812,43243,20369921,1718
20374812,43077,20374919,1634
20379812,42920,20379922,1791
20384812,42800,20384919,1654
20389812,42700,20389922,1552
20394812,42587,20394919,1582
20399812,42467,20399921,1662
20404812,42400,20404920,1617
20409812,42328,20409922,1535
20414812,42275,20414920,1519
20419812,42245,20419922,1680
20424812,42194,20424919,1649
20429812,42160,20429922,1614
20434812,42124,20434920,1552
20439812,42106,20439922,1712
20444812,42119,20444920,1639
20449812,42121,20449922,1574
20454812,42121,20454919,1613
20459812,42152,20459922,1747
20464812,42132,20464919,1715
20469812,42140,20469921,1555
20474812,42174,20474919,1569
20479812,42223,20479922,1745
20484812,42246,20484920,1701
20489812,42274,20489922,1583
20494812,42306,20494920,1617
20499812,42341,20499922,1710
20504812,42394,20504920,1679
20509812,42441,20509921,1614
20514812,42469,20514920,1667
20519812,42520,20519922,1728
20524812,42539,20524920,1641
20529812,42610,20529921,1617
20534812,42683,20534920,1648
20539812,42742,20539922,1737
20544812,42799,20544920,1655
20549812,42814,20549921,1603
20554812,42861,20554919,1617
20559812,42929,20559922,1712
20564812,42964,20564920,1687
20569812,43007,20569922,1648
20574812,43051,20574919,1616
20579812,43103,20579922,1746
20584812,43156,20584920,1699
20589812,43165,20589922,1635
20594812,43218,20594920,1580
20599812,43217,20599922,1711
20604812,43227,20604919,1706
20609812,43273,20609922,1602
20614812,43308,20614920,1643
20619812,43297,20619921,1738
20624812,43319,20624919,1680
20629812,43300,20629922,1649
20634812,43332,20634919,1618
20639812,43326,20639922,1771
20644812,43348,20644920,1661
20649812,43293,20649922,1616
20654812,43332,20654920,1680
20659812,43290,20659922,1719
20664812,43297,20664920,1758
20669812,43267,20669922,1636
20674812,43273,20674919,1663
20679812,43220,20679921,1806
20684812,43216,20684920,1702
20689812,43207,20689922,1683
20694812,43232,20694919,1639
20699812,43206,20699922,1824
20704812,43160,20704919,1723
20709812,43143,20709922,1673
20714812,43173,20714920,1680
20719812,43200,20719922,1809
20724812,43195,20724920,1727
20729812,43179,20729921,1698
20734812,43173,20734920,1717
20739812,43186,20739922,1795
20744812,43201,20744920,1724
20749812,43192,20749921,1696
20754812,43251,20754920,1674
20759812,43220,20759921,1842
20764812,43296,20764920,1751
20769812,43281,20769922,1661
20774812,43302,20774919,1726
20779812,43300,20779922,1840
20784812,43352,20784920,1757
20789812,43320,20789921,1756
20794812,43374,20794920,1744
20799812,43346,20799922,1829
20804812,43393,20804919,1791
20809812,43459,20809922,1773
20814812,43450,20814919,1743
20819812,43435,20819922,1859
20824812,43472,20824919,1777
20829812,43487,20829922,1754
20834812,43533,20834920,1750
20839812,43543,20839922,1868
20844812,43587,20844919,1822
20849812,43587,20849922,1791
20854812,43625,20854920,1793
20859812,43677,20859922,1903
20864812,43688,20864919,1867
20869812,43710,20869921,1818
20874812,43733,20874920,1913
20879812,43751,20879922,1963
20884812,43812,20884920,1959
20889812,43813,20889921,1872
20894812,43834,20894919,1872
20899812,43895,20899922,1935
20904812,43912,20904920,1901
20909812,43919,20909922,1845
20914812,43950,20914919,1796
20919812,43985,20919922,1892
20924812,44020,20924919,1870
20929812,44059,20929921,1775
20934812,44072,20934919,1799
20939812,44074,20939922,1979
20944812,44119,20944920,1829
20950812,44158,20950922,1803
20955812,44170,20955919,1827
20960812,44199,20960922,1918
20965812,44223,20965920,1872
20970812,44239,20970922,1790
20975812,44234,20975919,1846
20980812,44287,20980922,2001
20985812,44285,20985920,1872
20990812,44307,20990921,2044
20995812,44347,20995919,2525
21000812,44348,21000921,3618
21005812,44354,21005919,4095
21010812,44382,21010922,4095
21015812,44361,21015920,4095
21020812,44413,21020922,4095
21025812,44410,21025920,2435
21030812,44457,21030921,1572
21035812,44445,21035919,1569
21040812,44496,21040922,1843
21045812,44532,21045920,1837
21050812,44550,21050922,1754
21055812,44569,21055919,1787
21060812,44590,21060921,1781
21065812,44598,21065919,1769
21070812,44641,21070922,1709
21075812,44650,21075920,1723
21080812,44717,21080922,1829
21085812,44719,21085919,1723
21090812,44711,21090922,1750
21095812,44743,21095920,1776
21100812,44771,21100922,1862
21105812,44798,21105920,1744
21110812,44831,21110922,1754
21115812,44860,21115920,1837
21120812,44896,21120921,1902
21125812,44892,21125919,1805
21130812,44918,21130922,1760
21135812,44940,21135919,1849
21140812,44948,21140922,1968
21145812,44961,21145919,1861
21150812,44991,21150921,1840
21155812,45040,21155919,1872
21160812,45064,21160921,2023
21165812,45048,21165920,1933
21170812,45086,21170922,1923
21175812,45093,21175920,2005
21180812,45162,21180921,2123
21185812,45135,21185920,2043
21190812,45196,21190922,2062
21195812,45170,21195919,2165
21200812,45274,21200922,2219
21205812,45276,21205919,2161
21210812,45268,21210921,2157
21215812,45325,21215919,2193
21220812,45330,21220922,2346
21225812,45339,21225920,2288
21230812,45347,21230921,2209
21235812,45301,21235919,2285
21240812,45269,21240922,2409
21245812,45218,21245919,2227
21250812,45138,21250921,2203
21255812,45060,21255919,2261
21260812,44959,21260922,2301
21265812,44868,21265919,2146
21270812,44681,21270922,2025
21275812,44540,21275919,2070
21280812,44349,21280922,2077
21285812,44203,21285920,1871
21290812,44045,21290921,1760
21295812,43862,21295919,1681
21300812,43751,21300921,1791
21305812,43555,21305920,1599
21310812,43451,21310921,1599
21315812,43277,21315920,1605
21320812,43171,21320921,1648
21325812,43059,21325919,1520
21330812,42958,21330921,1479
21335812,42917,21335919,1557
21340812,42818,21340922,1614
21345812,42748,21345919,1488
21350812,42693,21350922,1520
21355812,42671,21355919,1517
21360812,42635,21360922,1661
21365812,42653,21365920,1569
21370812,42587,21370922,1527
21375812,42586,21375920,1533
21380812,42591,21380922,1643
21385812,42574,21385919,1590
21390812,42578,21390921,1570
21395812,42606,21395919,1654
21400812,42593,21400922,1662
21405812,42596,21405920,1534
21410812,42574,21410922,1612
21415812,42668,21415920,1611
21420812,42672,21420921,1725
21425812,42717,21425919,1585
21430812,42759,21430922,1527
21435812,42791,21435919,1649
21440812,42829,21440921,1693
21445812,42838,21445919,1529
21450812,42916,21450922,1552
21455812,42954,21455919,1590
21460812,42976,21460921,1715
21465812,43046,21465920,1590
21470812,43054,21470921,1570
21475812,43112,21475919,1607
21480812,43137,21480922,1712
21485812,43168,21485920,1629
21490812,43250,21490922,1590
21495812,43248,21495919,1619
21500812,43295,21500922,1705
21505812,43338,21505920,1560
21510812,43386,21510921,1570
21515812,43404,21515919,1628
21520812,43402,21520922,1717
21525812,43425,21525919,1599
21530812,43415,21530921,1581
21535812,43428,21535920,1600
21540812,43448,21540921,1701
21545812,43495,21545920,1584
21550812,43476,21550921,1571
21555812,43476,21555919,1632
21560812,43503,21560922,1735
21565812,43506,21565920,1611
21570812,43486,21570922,1610
21575812,43479,21575920,1628
21580812,43447,21580922,1725
21585812,43431,21585919,1630
21590812,43425,21590921,1594
21595812,43438,21595919,1697
21600812,43429,21600921,1759
21605812,43384,21605920,1637
21610812,43366,21610921,1610
21615812,43359,21615919,1645
21620812,43365,21620922,1743
21625812,43323,21625919,1646
21630812,43345,21630922,1648
21635812,43313,21635920,1733
21640812,43313,21640922,1754
21645812,43287,21645919,1711
21650812,43274,21650922,1645
21655812,43288,21655919,1739
21661812,43296,21661921,1776
21666812,43279,21666920,1704
21671812,43280,21671922,1629
21676812,43297,21676920,1723
21681812,43295,21681921,1830
21686812,43273,21686919,1683
21691812,43264,21691922,1680
21696812,43300,21696919,1759
21701812,43333,21701922,1797
21706812,43356,21706919,1704
21711812,43357,21711921,1712
21716812,43362,21716920,1797
21721812,43410,21721922,1824
21726812,43407,21726919,1705
21731812,43451,21731921,1728
21736812,43466,21736920,1757
21741812,43481,21741921,1827
21746812,43477,21746920,1738
21751812,43496,21751922,1710
21756812,43539,21756919,1803
21761812,43578,21761922,1822
21766812,43629,21766919,1743
21771812,43667,21771922,1705
21776812,43685,21776919,1758
21781812,43709,21781922,1847
21786812,43768,21786919,1677
21791812,43813,21791922,1731
21796812,43808,21796919,1838
21801812,43870,21801922,1886
21806812,43880,21806919,1759
21811812,43915,21811922,1769
21816812,43932,21816919,1859
21821812,44013,21821922,1872
21826812,44045,21826919,1808
21831812,44056,21831922,1829
21836812,44090,21836919,1932
21841812,44121,21841921,1955
21846812,44143,21846920,1815
21851812,44175,21851922,1776
21856812,44239,21856919,1872
21861812,44228,21861922,1895
21866812,44291,21866919,1767
21871812,44300,21871922,1754
21876812,44353,21876919,1840
21881812,44376,21881922,1831
21886812,44426,21886919,1767
21891812,44446,21891921,1725
21896812,44480,21896920,1835
21901812,44502,21901921,1868
21906812,44560,21906919,1826
21911812,44575,21911922,1773
21916812,44596,21916920,1872
21921812,44649,21921922,1903
21926812,44681,21926919,1875
21931812,44752,21931922,1871
21936812,44757,21936919,1968
21941812,44787,21941922,2244
21946812,44808,21946920,2660
21951812,44833,21951922,3671
21956812,44876,21956920,4095
21961812,44905,21961922,4095
21966812,44891,21966919,4095
21971812,44950,21971921,3186
21976812,45023,21976919,1904
21981812,45013,21981922,1519
21986812,45019,21986919,1595
21991812,45040,21991922,1715
21996812,45065,21996919,1811
22001812,45061,22001922,1855
22006812,45103,22006920,1707
22011812,45133,22011921,1719
22016812,45149,22016919,1803
22021812,45156,22021921,1839
22026812,45167,22026919,1701
22031812,45173,22031922,1755
22036812,45220,22036919,1856
22041812,45242,22041921,1824
22046812,45262,22046920,1775
22051812,45267,22051921,1808
22056812,45308,22056919,1878
22061812,45310,22061922,1854
22066812,45328,22066920,1795
22071812,45317,22071922,1829
22076812,45337,22076920,1914
22081812,45305,22081922,1883
22086812,45385,22086919,1814
22091812,45415,22091922,1836
22096812,45389,22096919,1919
22101812,45415,22101922,1985
22106812,45396,22106919,1898
22111812,45426,22111922,1957
22116812,45470,22116919,2023
22121812,45479,22121922,2047
22126812,45486,22126919,2013
22131812,45486,22131922,2012
22136812,45556,22136919,2127
22141812,45542,22141922,2197
22146812,45570,22146919,2055
22151812,45610,22151922,2122
22156812,45631,22156919,2259
22161812,45637,22161921,2289
22166812,45640,22166920,2209
22171812,45627,22171922,2269
22176812,45665,22176920,2357
22181812,45652,22181922,2368
22186812,45589,22186919,2313
22191812,45573,22191922,2223
22196812,45521,22196919,2358
22201812,45454,22201922,2334
22206812,45385,22206919,2199
22211812,45252,22211922,2171
22216812,45119,22216919,2243
22221812,44985,22221921,2157
22226812,44814,22226919,2005
22231812,44721,22231922,1916
22236812,44511,22236920,1919
22241812,44386,22241922,1857
22246812,44205,22246920,1716
22251812,44043,22251922,1730
22256812,43904,22256920,1735
22261812,43774,22261922,1712
22266812,43632,22266919,1593
22271812,43494,22271922,1565
22276812,43396,22276920,1658
22281812,43257,22281922,1603
22286812,43205,22286920,1535
22291812,43117,22291922,1552
22296812,43049,22296920,1639
22301812,42991,22301921,1626
22306812,42924,22306920,1520
22311812,42907,22311922,1558
22316812,42858,22316920,1652
22321812,42830,22321921,1691
22326812,42822,22326919,1563
22331812,42824,22331922,1603
22336812,42829,22336919,1712
22341812,42837,22341922,1708
22346812,42851,22346919,1615
22352812,42839,22352921,1606
22357812,42875,22357919,1744
22362812,42880,22362922,1634
22367812,42916,22367919,1571
22372812,42944,22372921,1610
22377812,42923,22377919,1739
22382812,42997,22382922,1666
22387812,43005,22387919,1587
22392812,43036,22392922,1584
22397812,43069,22397920,1767
22402812,43126,22402922,1651
22407812,43125,22407919,1611
22412812,43179,22412921,1587
22417812,43230,22417920,1741
22422812,43265,22422922,1651
22427812,43292,22427919,1635
22432812,43385,22432922,1633
22437812,43386,22437920,1729
22442812,43475,22442922,1648
22447812,43507,22447920,1616
22452812,43563,22452922,1584
22457812,43570,22457920,1690
22462812,43650,22462921,1625
22467812,43636,22467920,1585
22472812,43691,22472921,1628
22477812,43712,22477920,1725
22482812,43768,22482922,1659
22487812,43758,22487919,1627
22492812,43800,22492922,1634
22497812,43790,22497920,1707
22502812,43830,22502921,1630
22507812,43884,22507919,1583
22512812,43869,22512922,1606
22517812,43858,22517919,1746
22522812,43887,22522921,1648
22527812,43871,22527919,1598
22532812,43862,22532922,1594
22537812,43850,22537919,1750
22542812,43833,22542922,1679
22547812,43809,22547919,1655
22552812,43797,22552921,1697
22557812,43796,22557919,1743
22562812,43788,22562921,1712
22567812,43803,22567920,1663
22572812,43780,22572922,1631
22577812,43765,22577920,1803
22582812,43807,22582922,1723
22587812,43768,22587919,1687
22592812,43757,22592922,1646
22597812,43775,22597920,1783
22602812,43786,22602922,1754
22607812,43802,22607919,1682
22612812,43819,22612921,1679
22617812,43797,22617920,1781
22622812,43804,22622922,1739
22627812,43841,22627920,1688
22632812,43891,22632922,1719
22637812,43905,22637919,1826
22642812,43920,22642921,1769
22647812,43965,22647919,1694
22652812,43959,22652921,1706
22657812,43968,22657919,1853
22662812,44009,22662922,1764
22667812,44034,22667920,1674
22672812,44028,22672921,1711
22677812,44095,22677920,1775
22682812,44114,22682922,1751
22687812,44108,22687919,1698
22692812,44166,22692922,1723
22697812,44196,22697919,1818
22702812,44211,22702922,1795
22707812,44255,22707920,1727
22712812,44275,22712922,1692
22717812,44330,22717920,1868
22722812,44343,22722922,1795
22727812,44384,22727919,1728
22732812,44377,22732922,1795
22737812,44432,22737919,1875
22742812,44464,22742921,1899
22747812,44475,22747920,1843
22752812,44504,22752922,1835
22757812,44534,22757920,1983
22762812,44563,22762922,1872
22767812,44595,22767920,1822
22772812,44629,22772922,1767
22777812,44649,22777919,1967
22782812,44686,22782921,1840
22787812,44706,22787919,1765
22792812,44743,22792922,1808
22797812,44798,22797919,1921
22802812,44778,22802921,1815
22807812,44756,22807920,1731
22812812,44793,22812921,1759
22817812,44832,22817919,1855
22822812,44878,22822922,1827
22827812,44893,22827919,1773
22832812,44936,22832922,1762
22837812,44991,22837919,1872
22842812,44978,22842922,1875
22847812,44998,22847919,1825
22852812,45055,22852922,1885
22857812,45067,22857919,1989
22862812,45104,22862922,1974
22867812,45124,22867919,2357
22872812,45156,22872922,3153
22877812,45128,22877919,4095
22882812,45193,22882922,4095
22887812,45181,22887920,4095
22892812,45215,22892922,4046
22897812,45206,22897920,2410
22902812,45241,22902921,1505
22907812,45259,22907920,1562
22912812,45308,22912921,1794
22917812,45337,22917919,1902
22922812,45284,22922922,1809
22927812,45277,22927919,1757
22932812,45297,22932922,1683
22937812,45322,22937920,1842
22942812,45337,22942922,1781
22947812,45378,22947920,1702
22952812,45375,22952922,1745
22957812,45379,22957919,1840
22962812,45405,22962922,1785
22967812,45401,22967919,1728
22972812,45463,22972922,1744
22977812,45448,22977920,1872
22982812,45476,22982922,1815
22987812,45481,22987919,1748
22992812,45498,22992921,1776
22997812,45482,22997919,1937
23002812,45515,23002922,1833
23007812,45525,23007920,1847
23012812,45560,23012922,1829
23017812,45528,23017919,1971
23022812,45557,23022922,1878
23027812,45579,23027919,1865
23032812,45615,23032921,1872
23037812,45606,23037920,2000
23042812,45631,23042922,1954
23047812,45632,23047919,1914
23052812,45656,23052922,2016
23057812,45664,23057919,2151
23062812,45659,23062921,2116
23068812,45683,23068919,2091
23073812,45679,23073921,2154
23078812,45712,23078919,2302
23083812,45738,23083922,2235
23088812,45722,23088919,2242
23093812,45750,23093922,2279
23098812,45712,23098919,2399
23103812,45701,23103921,2269
23108812,45653,23108920,2283
23113812,45621,23113922,2369
23118812,45526,23118920,2413
23123812,45451,23123922,2306
23128812,45364,23128920,2273
23133812,45263,23133922,2217
23138812,45114,23138920,2288
23143812,44976,23143922,2155
23148812,44814,23148919,2043
23153812,44657,23153921,1986
23158812,44479,23158919,1972
23163812,44325,23163922,1793
23168812,44163,23168919,1741
23173812,43988,23173922,1751
23178812,43789,23178919,1747
23183812,43695,23183922,1717
23188812,43513,23188920,1573
23193812,43398,23193922,1612
23198812,43313,23198920,1699
23203812,43186,23203922,1583
23208812,43110,23208919,1506
23213812,43010,23213922,1587
23218812,42900,23218919,1719
23223812,42873,23223922,1588
23228812,42813,23228919,1533
23233812,42821,23233922,1616
23238812,42784,23238920,1712
23243812,42740,23243922,1605
23248812,42750,23248920,1579
23253812,42747,23253922,1637
23258812,42698,23258919,1702
23263812,42726,23263921,1591
23268812,42734,23268919,1586
23273812,42759,23273922,1657
23278812,42788,23278919,1703
23283812,42823,23283921,1571
23288812,42844,23288920,1602
23293812,42865,23293922,1614
23298812,42875,23298920,1718
23303812,42941,23303921,1623
23308812,42942,23308919,1588
23313812,43030,23313922,1630
23318812,43021,23318919,1722
23323812,43100,23323922,1598
23328812,43145,23328920,1524
23333812,43205,23333922,1600
23338812,43242,23338919,1687
23343812,43288,23343922,1584
23348812,43298,23348920,1563
23353812,43368,23353922,1600
23358812,43456,23358920,1670
23363812,43516,23363922,1591
23368812,43554,23368919,1594
23373812,43569,23373921,1587
23378812,43643,23378919,1702
23383812,43690,23383921,1603
23388812,43739,23388919,1572
23393812,43762,23393922,1615
23398812,43807,23398919,1712
23403812,43835,23403922,1610
23408812,43873,23408919,1584
23413812,43871,23413921,1675
23418812,43936,23418919,1759
23423812,43912,23423922,1645
23428812,43917,23428919,1615
23433812,43955,23433922,1686
23438812,43955,23438920,1722
23443812,43945,23443921,1627
23448812,43963,23448919,1612
23453812,43932,23453922,1682
23458812,43962,23458920,1793
23463812,43913,23463921,1648
23468812,43945,23468920,1647
23473812,43901,23473921,1657
23478812,43890,23478920,1760
23483812,43892,23483922,1663
23488812,43879,23488920,1633
23493812,43841,23493921,1635
23498812,43855,23498920,1718
23503812,43852,23503922,1627
23508812,43814,23508919,1627
23513812,43798,23513921,1680
23518812,43807,23518919,1761
23523812,43783,23523922,1686
23528812,43792,23528919,1629
23533812,43800,23533922,1677
23538812,43775,23538919,1770
23543812,43733,23543921,1680
23548812,43773,23548919,1663
23553812,43804,23553921,1701
23558812,43808,23558919,1840
23563812,43829,23563921,1688
23568812,43818,23568920,1668
23573812,43836,23573921,1702
23578812,43871,23578920,1829
23583812,43875,23583921,1737
23588812,43916,23588920,1678
23593812,43902,23593922,1760
23598812,43942,23598920,1819
23603812,43969,23603922,1714
23608812,43981,23608919,1696
23613812,43986,23613922,1815
23618812,44028,23618920,1840
23623812,44041,23623922,1748
23628812,44075,23628919,1712
23633812,44046,23633921,1725
23638812,44088,23638919,1806
23643812,44131,23643921,1718
23648812,44181,23648919,1722
23653812,44166,23653921,1744
23658812,44193,23658919,1911
23663812,44204,23663922,1806
23668812,44209,23668920,1746
23673812,44267,23673921,1871
23678812,44273,23678919,1934
23683812,44325,23683922,1907
23688812,44339,23688919,1807
23693812,44361,23693921,1837
23698812,44413,23698919,1917
23703812,44416,23703922,1770
23708812,44454,23708919,1812
23713812,44504,23713922,1809
23718812,44503,23718919,1887
23723812,44549,23723922,1747
23728812,44545,23728919,1754
23733812,44604,23733922,1831
23738812,44591,23738919,1939
23743812,44618,23743922,1808
23748812,44658,23748920,1780
23753812,44669,23753922,1858
23758812,44717,23758920,1904
23763812,44723,23763922,1791
23768812,44745,23768919,1821
23773812,44776,23773922,1887
23778812,44816,23778919,1934
23783812,44835,23783921,1882
23788812,44834,23788919,1873
23793812,44864,23793921,2244
23799812,44867,23799919,3138
23804812,44891,23804922,4095
23809812,44882,23809919,4095
23814812,44952,23814922,4095
23819812,44947,23819920,4095
23824812,44986,23824922,2667
23829812,44982,23829920,1581
23834812,44996,23834922,1648
23839812,45034,23839920,1808
23844812,45051,23844922,1794
23849812,45050,23849920,1803
23854812,45069,23854922,1792
23859812,45070,23859920,1847
23864812,45072,23864921,1680
23869812,45095,23869919,1687
23874812,45111,23874922,1805
23879812,45143,23879919,1855
23884812,45148,23884921,1728
23889812,45198,23889919,1728
23894812,45186,23894921,1829
23899812,45195,23899920,1807
23904812,45225,23904922,1747
23909812,45218,23909919,1730
23914812,45259,23914921,1860
23919812,45279,23919919,1861
23924812,45296,23924922,1797
23929812,45322,23929919,1776
23934812,45349,23934921,1907
23939812,45346,23939919,1938
23944812,45377,23944921,1847
23949812,45399,23949920,1904
23954812,45427,23954921,1937
23959812,45427,23959920,2015
23964812,45492,23964922,1883
23969812,45501,23969920,1936
23974812,45524,23974921,2055
23979812,45531,23979919,2103
23984812,45537,23984922,2027
23989812,45565,23989919,2081
23994812,45594,23994922,2138
23999812,45621,23999919,2182
24004812,45656,24004922,2170
24009812,45660,24009920,2155
24014812,45698,24014921,2289
24019812,45687,24019919,2370
24024812,45707,24024922,2277
24029812,45710,24029919,2242
24034812,45675,24034922,2343
24039812,45645,24039920,2390
24044812,45589,24044922,2256
24049812,45521,24049920,2255
24054812,45424,24054921,2327
24059812,45342,24059919,2326
24064812,45235,24064921,2141
24069812,45079,24069919,2112
24074812,44949,24074921,2110
24079812,44768,24079919,2106
24084812,44621,24084922,1935
24089812,44478,24089920,1835
24094812,44339,24094922,1849
24099812,44170,24099919,1835
24104812,43988,24104921,1685
24109812,43857,24109920,1650
24114812,43670,24114922,1750
24119812,43593,24119919,1655
24124812,43434,24124922,1607
24129812,43390,24129919,1562
24134812,43290,24134922,1615
24139812,43206,24139920,1612
24144812,43138,24144922,1582
24149812,43074,24149919,1518
24154812,43045,24154922,1664
24159812,42978,24159919,1684
24164812,42915,24164922,1545
24169812,42929,24169920,1561
24174812,42918,24174922,1631
24179812,42918,24179919,1711
24184812,42910,24184921,1607
24189812,42933,24189919,1584
24194812,42943,24194921,1659
24199812,42955,24199919,1712
24204812,42966,24204922,1619
24209812,42956,24209919,1551
24214812,43008,24214922,1696
24219812,43078,24219919,1698
24224812,43071,24224922,1614
24229812,43120,24229919,1584
24234812,43110,24234921,1672
24239812,43149,24239919,1702
24244812,43184,24244922,1593
24249812,43229,24249919,1572
24254812,43268,24254922,1673
24259812,43264,24259920,1716
24264812,43335,24264922,1589
24269812,43333,24269919,1568
24274812,43405,24274922,1684
24279812,43451,24279920,1700
24284812,43464,24284922,1570
24289812,43517,24289919,1594
24294812,43532,24294922,1677
24299812,43607,24299919,1711
24304812,43670,24304922,1616
24309812,43674,24309920,1631
24314812,43704,24314921,1680
24319812,43770,24319919,1695
24324812,43811,24324921,1584
24329812,43772,24329919,1617
24334812,43791,24334922,1687
24339812,43864,24339920,1709
24344812,43875,24344922,1592
24349812,43850,24349919,1616
24354812,43838,24354922,1734
24359812,43880,24359919,1701
24364812,43859,24364921,1597
24369812,43905,24369919,1623
24374812,43841,24374921,1730
24379812,43845,24379919,1744
24384812,43793,24384921,1610
24389812,43765,24389920,1663
24394812,43790,24394922,1759
24399812,43801,24399919,1703
24404812,43801,24404922,1678
24409812,43773,24409919,1680
24414812,43733,24414922,1717
24419812,43717,24419919,1739
24424812,43714,24424922,1665
24429812,43702,24429920,1635
24434812,43695,24434922,1743
24439812,43690,24439920,1706
24444812,43691,24444921,1643
24449812,43662,24449919,1663
24454812,43663,24454921,1733
24459812,43638,24459919,1737
24464812,43652,24464921,1682
24469812,43664,24469919,1680
24474812,43669,24474921,1776
24479812,43681,24479920,1797
24484812,43667,24484921,1641
24489812,43656,24489920,1691
24494812,43692,24494921,1813
24499812,43672,24499920,1823
24505812,43687,24505921,1714
24510812,43737,24510920,1712
24515812,43741,24515922,1845
24520812,43726,24520920,1783
24525812,43781,24525921,1737
24530812,43786,24530919,1767
24535812,43811,24535922,1840
24540812,43800,24540919,1759
24545812,43794,24545922,1749
24550812,43839,24550919,1710
24555812,43865,24555922,1840
24560812,43880,24560920,1801
24565812,43920,24565922,1745
24570812,43907,24570920,1765
24575812,43946,24575922,1934
24580812,43972,24580920,1899
24585812,44006,24585922,1887
24590812,44027,24590920,1852
24595812,44049,24595922,1975
24600812,44086,24600919,1915
24605812,44114,24605921,1791
24610812,44136,24610919,1849
24615812,44213,24615922,1935
24620812,44198,24620920,1855
24625812,44252,24625921,1817
24630812,44268,24630920,1811
24635812,44341,24635922,1906
24640812,44374,24640920,1822
24645812,44358,24645922,1750
24650812,44399,24650919,1749
24655812,44451,24655922,1885
24660812,44497,24660919,1861
24665812,44549,24665922,1754
24670812,44562,24670919,1819
24675812,44619,24675921,1872
24680812,44607,24680920,1882
24685812,44667,24685922,1814
24690812,44717,24690919,1877
24695812,44737,24695922,1995
24700812,44734,24700919,2146
24705812,44763,24705922,2635
24710812,44804,24710919,3725
24715812,44811,24715921,4095
24720812,44849,24720920,4095
24725812,44875,24725922,4095
24730812,44881,24730920,3601
24735812,44962,24735922,2132
24740812,45001,24740919,1546
24745812,45026,24745921,1581
24750812,45048,24750919,1757
24755812,45102,24755922,1915
24760812,45097,24760919,1808
24765812,45143,24765922,1712
24770812,45171,24770919,1695
24775812,45191,24775921,1769
24780812,45231,24780920,1771
24785812,45282,24785922,1675
24790812,45290,24790920,1712
24795812,45348,24795921,1835
24800812,45337,24800919,1810
24805812,45377,24805921,1695
24810812,45430,24810920,1750
24815812,45427,24815922,1822
24820812,45473,24820920,1761
24825812,45463,24825922,1751
24830812,45520,24830920,1773
24835812,45534,24835922,1939
24840812,45556,24840919,1818
24845812,45558,24845922,1777
24850812,45561,24850919,1835
24855812,45577,24855921,1930
24860812,45626,24860920,1892
24865812,45653,24865922,1844
24870812,45655,24870919,1945
24875812,45692,24875922,2011
24880812,45726,24880919,1995
24885812,45736,24885922,1955
24890812,45749,24890920,1968
24895812,45726,24895921,2177
24900812,45796,24900919,2110
24905812,45788,24905922,2067
24910812,45826,24910919,2110
24915812,45767,24915922,2283
24920812,45814,24920920,2206
24925812,45843,24925921,2195
24930812,45872,24930920,2253
24935812,45826,24935922,2361
24940812,45835,24940920,2355
24945812,45767,24945921,2279
24950812,45715,24950919,2283
24955812,45647,24955922,2349
24960812,45603,24960919,2301
24965812,45495,24965922,2183
24970812,45411,24970919,2189
24975812,45287,24975922,2288
24980812,45161,24980920,2116
24985812,44992,24985921,2001
24990812,44849,24990919,1903
24995812,44693,24995921,1941
25000812,44540,25000919,1791
25005812,44369,25005921,1717
25010812,44192,25010919,1602
25015812,44050,25015922,1694
25020812,43929,25020920,1646
25025812,43771,25025922,1571
25030812,43623,25030919,1609
25035812,43517,25035922,1606
25040812,43418,25040920,1552
25045812,43356,25045922,1425
25050812,43256,25050919,1529
25055812,43153,25055921,1616
25060812,43094,25060920,1554
25065812,43019,25065921,1484
25070812,43022,25070920,1483
25075812,42970,25075922,1603
25080812,42963,25080920,1593
25085812,42972,25085922,1543
25090812,42940,25090920,1534
25095812,42955,25095922,1701
25100812,42952,25100919,1586
25105812,42965,25105921,1531
25110812,42968,25110919,1535
25115812,42998,25115921,1693
25120812,43008,25120920,1623
25125812,43010,25125922,1491
25130812,43051,25130919,1584
25135812,43079,25135922,1708
25140812,43093,25140920,1629
25145812,43138,25145922,1535
25150812,43188,25150920,1596
25155812,43230,25155921,1712
25160812,43252,25160919,1620
25165812,43272,25165922,1529
25170812,43305,25170919,1551
25175812,43369,25175921,1681
25180812,43370,25180920,1647
25185812,43465,25185922,1574
25191812,43475,25191919,1591
25196812,43488,25196921,1735
25201812,43544,25201920,1595
25206812,43607,25206921,1590
25211812,43607,25211920,1583
25216812,43657,25216922,1681
25221812,43670,25221919,1589
25226812,43697,25226921,1603
25231812,43713,25231920,1605
25236812,43751,25236921,1731
25241812,43779,25241919,1613
25246812,43808,25246922,1627
25251812,43830,25251920,1612
25256812,43831,25256922,1773
25261812,43817,25261919,1643
25266812,43779,25266922,1603
25271812,43810,25271919,1627
25276812,43833,25276922,1728
25281812,43807,25281919,1639
25286812,43821,25286922,1591
25291812,43791,25291919,1690
25296812,43792,25296922,1735
25301812,43785,25301919,1708
25306812,43755,25306922,1627
25311812,43746,25311919,1685
25316812,43765,25316921,1739
25321812,43750,25321919,1691
25326812,43745,25326922,1638
25331812,43702,25331919,1638
25336812,43690,25336922,1794
25341812,43659,25341920,1628
25346812,43690,25346922,1616
25351812,43689,25351919,1676
25356812,43692,25356922,1842
25361812,43740,25361919,1732
25366812,43711,25366922,1663
25371812,43745,25371919,1717
25376812,43716,25376922,1826
25381812,43737,25381919,1653
25386812,43748,25386922,1649
25391812,43736,25391919,1744
25396812,43769,25396922,1815
25401812,43772,25401920,1725
25406812,43804,25406922,1663
25411812,43847,25411919,1745
25416812,43874,25416922,1853
25421812,43862,25421919,1726
25426812,43890,25426922,1693
25431812,43940,25431920,1723
25436812,44018,25436922,1808
25441812,43983,25441919,1712
25446812,44015,25446921,1669
25451812,44068,25451919,1747
25456812,44102,25456922,1860
25461812,44166,25461920,1771
25466812,44176,25466922,1703
25471812,44219,25471919,1781
25476812,44220,25476922,1889
25481812,44302,25481919,1842
25486812,44305,25486922,1827
25491812,44351,25491920,1889
25496812,44393,25496922,1968
25501812,44431,25501920,1866
25506812,44485,25506922,1751
25511812,44483,25511919,1843
25516812,44515,25516922,1921
25521812,44571,25521920,1808
25526812,44612,25526922,1777
25531812,44597,25531919,1833
25536812,44622,25536921,1927
25541812,44671,25541919,1802
25546812,44704,25546922,1767
25551812,44740,25551920,1821
25556812,44759,25556922,1888
25561812,44813,25561920,1776
25566812,44822,25566922,1758
25571812,44882,25571920,1789
25576812,44881,25576922,1891
25581812,44899,25581919,1829
25586812,44949,25586922,1831
25591812,44963,25591919,1919
25596812,45008,25596922,2108
25601812,44991,25601920,2225
25606812,44993,25606922,2771
25611812,45043,25611919,4087
25616812,45043,25616921,4095
25621812,45104,25621920,4095
25626812,45113,25626922,4095
25631812,45099,25631919,2750
25636812,45112,25636922,1656
25641812,45132,25641919,1440
25646812,45188,25646922,1674
25651812,45193,25651919,1809
25656812,45179,25656921,1904
25661812,45275,25661919,1763
25666812,45280,25666922,1744
25671812,45297,25671920,1751
25676812,45294,25676922,1797
25681812,45312,25681919,1723
25686812,45362,25686921,1697
25691812,45365,25691920,1753
25696812,45379,25696922,1797
25701812,45405,25701919,1774
25706812,45381,25706922,1728
25711812,45428,25711919,1764
25716812,45387,25716922,1904
25721812,45485,25721919,1803
25726812,45435,25726922,1777
25731812,45459,25731920,1818
25736812,45447,25736922,1966
25741812,45499,25741919,1865
25746812,45515,25746921,1841
25751812,45507,25751920,1904
25756812,45503,25756921,1980
25761812,45472,25761920,1862
25766812,45495,25766922,1850
25771812,45510,25771920,1987
25776812,45550,25776921,2014
25781812,45555,25781919,1967
25786812,45562,25786922,2003
25791812,45581,25791919,2096
25796812,45588,25796922,2125
25801812,45614,25801919,2095
25806812,45617,25806921,2102
25811812,45650,25811919,2224
25816812,45639,25816922,2330
25821812,45672,25821920,2242
25826812,45670,25826922,2212
25831812,45676,25831919,2305
25836812,45693,25836921,2367
25841812,45660,25841919,2283
25846812,45633,25846922,2301
25851812,45595,25851919,2352
25856812,45542,25856922,2434
25861812,45466,25861920,2297
25866812,45406,25866921,2221
25871812,45301,25871919,2266
25876812,45156,25876922,2269
25881812,45030,25881919,2091
25886812,44925,25886921,1968
25892812,44774,25892919,1974
25897812,44623,25897922,1945
25902812,44446,25902920,1731
25907812,44292,25907921,1697
25912812,44155,25912920,1728
25917812,43999,25917922,1666
25922812,43866,25922920,1591
25927812,43732,25927922,1584
25932812,43599,25932920,1599
25937812,43473,25937922,1607
25942812,43382,25942919,1530
25947812,43275,25947921,1558
25952812,43209,25952919,1634
25957812,43140,25957922,1611
25962812,43081,25962919,1563
25967812,43052,25967922,1567
25972812,42994,25972920,1597
25977812,43004,25977922,1677
25982812,42939,25982919,1587
25987812,42944,25987922,1552
25992812,42959,25992919,1636
25997812,42944,25997922,1744
26002812,42922,26002919,1583
26007812,42965,26007922,1600
26012812,42957,26012919,1658
26017812,43008,26017921,1691
26022812,43036,26022920,1589
26027812,43072,26027921,1587
26032812,43105,26032919,1634
26037812,43138,26037922,1675
26042812,43154,26042920,1591
26047812,43192,26047922,1547
26052812,43246,26052919,1679
26057812,43299,26057922,1663
26062812,43321,26062920,1574
26067812,43411,26067922,1605
26072812,43442,26072920,1648
26077812,43489,26077922,1734
26082812,43551,26082919,1618
26087812,43625,26087922,1581
26092812,43662,26092920,1681
26097812,43693,26097922,1702
26102812,43765,26102920,1647
26107812,43773,26107922,1581
26112812,43832,26112920,1653
26117812,43880,26117921,1712
26122812,43960,26122919,1611
26127812,43927,26127922,1581
26132812,44003,26132920,1735
26137812,44049,26137922,1677
26142812,44063,26142919,1641
26147812,44058,26147922,1559
26152812,44101,26152919,1713
26157812,44138,26157922,1751
26162812,44113,26162919,1602
26167812,44145,26167921,1584
26172812,44137,26172920,1694
26177812,44145,26177922,1744
26182812,44182,26182919,1618
26187812,44164,26187921,1661
26192812,44180,26192919,1740
26197812,44181,26197922,1695
26202812,44162,26202920,1651
26207812,44140,26207922,1637
26212812,44121,26212920,1701
26217812,44119,26217922,1743
26222812,44133,26222919,1684
26227812,44118,26227922,1655
26232812,44098,26232919,1755
26237812,44068,26237922,1813
26242812,44082,26242920,1646
26247812,44072,26247922,1685
26252812,44073,26252920,1718
26257812,44041,26257921,1758
26262812,44034,26262919,1660
26267812,44062,26267921,1680
26272812,44040,26272919,1784
26277812,44050,26277921,1823
26282812,44071,26282920,1715
26287812,44057,26287921,1686
26292812,44081,26292920,1777
26297812,44100,26297922,1803
26302812,44143,26302919,1687
26307812,44155,26307921,1737
26312812,44125,26312920,1825
26317812,44137,26317921,1799
26322812,44192,26322919,1724
26327812,44205,26327922,1733
26332812,44186,26332919,1808
26337812,44188,26337921,1798
26342812,44222,26342919,1729
26347812,44266,26347921,1744
26352812,44294,26352919,1854
26357812,44270,26357922,1853
26362812,44310,26362919,1809
26367812,44319,26367922,1831
26372812,44326,26372919,1926
26377812,44335,26377922,1962
26382812,44400,26382919,1824
26387812,44427,26387922,1847
26392812,44466,26392920,1941
26397812,44482,26397922,1873
26402812,44492,26402920,1791
26407812,44537,26407922,1809
26412812,44566,26412919,1898
26417812,44577,26417922,1872
26422812,44623,26422919,1779
26427812,44649,26427922,1808
26432812,44659,26432919,1885
26437812,44685,26437922,1895
26442812,44711,26442919,1797
26447812,44724,26447922,1761
26452812,44746,26452920,1870
26457812,44751,26457922,1855
26462812,44810,26462919,1833
26467812,44838,26467921,1833
26472812,44872,26472920,1926
26477812,44876,26477921,1946
26482812,44859,26482920,2026
26487812,44896,26487922,2459
26492812,44885,26492920,3463
26497812,44918,26497921,4095
26502812,44926,26502920,4095
26507812,44953,26507922,4095
26512812,45001,26512920,3847
26517812,45020,26517921,2164
26522812,45034,26522919,1488
26527812,45063,26527921,1584
26532812,45085,26532919,1809
26537812,45064,26537922,1923
26542812,45110,26542920,1756
26547812,45127,26547922,1745
26552812,45151,26552919,1835
26557812,45144,26557921,1825
26562812,45156,26562919,1722
26567812,45190,26567921,1727
26572812,45209,26572920,1817
26577812,45244,26577921,1808
26582812,45238,26582919,1680
26587812,45291,26587921,1715
26592812,45269,26592919,1823
26597812,45282,26597922,1842
26602812,45319,26602920,1729
26607812,45323,26607922,1748
26612812,45311,26612920,1823
26617812,45339,26617921,1857
26623812,45337,26623920,1784
26628812,45361,26628921,1783
26633812,45360,26633919,1904
26638812,45358,26638921,1911
26643812,45362,26643919,1831
26648812,45375,26648922,1855
26653812,45410,26653919,2027
26658812,45420,26658922,1971
26663812,45407,26663920,1931
26668812,45426,26668922,1952
26673812,45442,26673919,2087
26678812,45452,26678922,2112
26683812,45458,26683919,2063
26688812,45459,26688922,2100
26693812,45492,26693919,2231
26698812,45488,26698922,2231
26703812,45505,26703920,2192
26708812,45537,26708922,2241
26713812,45520,26713919,2335
26718812,45503,26718922,2363
26723812,45491,26723919,2298
26728812,45437,26728921,2277
26733812,45414,26733919,2416
26738812,45345,26738921,2308
26743812,45263,26743919,2240
26748812,45174,26748922,2236
26753812,45088,26753919,2301
26758812,44947,26758921,2192
26763812,44775,26763919,2083
26768812,44654,26768921,2009
26773812,44515,26773919,2026
26778812,44381,26778921,1890
26783812,44159,26783919,1744
26788812,44014,26788921,1735
26793812,43830,26793919,1744
26798812,43705,26798922,1714
26803812,43536,26803920,1616
26808812,43409,26808921,1575
26813812,43281,26813919,1663
26818812,43191,26818922,1599
26823812,43099,26823919,1552
26828812,42997,26828922,1549
26833812,42922,26833920,1697
26838812,42881,26838921,1623
26843812,42801,26843920,1520
26848812,42799,26848922,1593
26853812,42747,26853920,1727
26858812,42713,26858922,1634
26863812,42735,26863920,1561
26868812,42722,26868922,1629
26873812,42738,26873920,1711
26878812,42740,26878922,1629
26883812,42688,26883920,1569
26888812,42754,26888922,1586
26893812,42803,26893919,1713
26898812,42857,26898921,1657
26903812,42865,26903919,1600
26908812,42864,26908922,1627
26913812,42924,26913919,1662
26918812,42961,26918922,1653
26923812,42985,26923919,1587
26928812,43003,26928922,1604
26933812,43055,26933919,1749
26938812,43093,26938922,1678
26943812,43155,26943919,1550
26948812,43173,26948922,1600
26953812,43238,26953919,1697
26958812,43266,26958921,1626
26963812,43319,26963919,1610
26968812,43357,26968922,1578
26973812,43419,26973919,1672
26978812,43444,26978922,1629
26983812,43496,26983920,1622
26988812,43539,26988922,1601
26993812,43591,26993919,1687
26998812,43604,26998922,1647
27003812,43663,27003920,1568
27008812,43716,27008922,1631
27013812,43732,27013919,1712
27018812,43748,27018922,1612
27023812,43819,27023920,1616
27028812,43756,27028921,1614
27033812,43817,27033920,1711
27038812,43792,27038922,1702
27043812,43837,27043920,1632
27048812,43795,27048921,1616
27053812,43804,27053919,1719
27058812,43822,27058922,1658
27063812,43836,27063919,1603
27068812,43762,27068922,1633
27073812,43764,27073920,1735
27078812,43755,27078922,1677
27083812,43756,27083920,1617
27088812,43732,27088922,1623
27093812,43740,27093919,1763
27098812,43713,27098922,1687
27103812,43746,27103919,1613
27108812,43699,27108922,1657
27113812,43702,27113920,1762
27118812,43666,27118922,1677
27123812,43659,27123920,1659
27128812,43680,27128922,1667
27133812,43664,27133919,1744
27138812,43597,27138922,1709
27143812,43644,27143919,1626
27148812,43585,27148922,1673
27153812,43644,27153919,1749
27158812,43590,27158922,1712
27163812,43610,27163920,1667
27168812,43612,27168922,1697
27173812,43641,27173919,1759
27178812,43651,27178922,1754
27183812,43623,27183919,1670
27188812,43630,27188922,1693
27193812,43612,27193920,1823
27198812,43656,27198922,1760
27203812,43672,27203920,1670
27208812,43730,27208922,1691
27213812,43697,27213919,1824
27218812,43735,27218922,1771
27223812,43741,27223920,1691
27228812,43739,27228922,1664
27233812,43791,27233920,1845
27238812,43815,27238922,1802
27243812,43818,27243919,1747
27248812,43840,27248921,1766
27253812,43862,27253920,1971
27258812,43885,27258922,1868
27263812,43929,27263919,1842
27268812,43949,27268922,1827
27273812,43969,27273919,1957
27278812,44002,27278922,1861
27283812,44022,27283919,1727
27288812,44044,27288922,1805
27293812,44079,27293919,1853
27298812,44085,27298922,1824
27303812,44097,27303919,1743
27308812,44160,27308922,1753
27313812,44166,27313919,1865
27318812,44175,27318922,1815
27324812,44181,27324919,1744
27329812,44245,27329921,1757
27334812,44260,27334919,1936
27339812,44285,27339922,1770
27344812,44272,27344920,1725
27349812,44317,27349921,1803
27354812,44345,27354919,1951
27359812,44355,27359922,1894
27364812,44384,27364919,1839
27369812,44392,27369921,1943
27374812,44403,27374920,2478
27379812,44447,27379922,3280
27384812,44436,27384920,4095
27389812,44499,27389921,4095
27394812,44479,27394919,4095
27399812,44513,27399921,3994
27404812,44556,27404919,2225
27409812,44559,27409922,1551
27414812,44584,27414919,1702
27419812,44617,27419922,1808
27424812,44589,27424919,1791
27429812,44605,27429921,1769
27434812,44659,27434919,1818
27439812,44672,27439922,1749
27444812,44693,27444919,1681
27449812,44744,27449921,1711
27454812,44760,27454920,1856
27459812,44806,27459921,1713
27464812,44802,27464919,1710
27469812,44824,27469922,1745
27474812,44887,27474919,1867
27479812,44904,27479922,1753
27484812,44918,27484919,1731
27489812,44944,27489922,1776
27494812,44973,27494919,1906
27499812,44998,27499922,1820
27504812,44981,27504919,1799
27509812,45010,27509921,1808
27514812,45035,27514919,1939
27519812,45062,27519922,1890
27524812,45088,27524920,1839
27529812,45090,27529922,1874
27534812,45116,27534919,1979
27539812,45134,27539922,1947
27544812,45170,27544920,1920
27549812,45179,27549921,1937
27554812,45213,27554920,2064
27559812,45215,27559922,1983
27564812,45231,27564919,1983
27569812,45246,27569922,2033
27574812,45342,27574919,2205
27579812,45340,27579922,2142
27584812,45369,27584919,2166
27589812,45365,27589922,2235
27594812,45386,27594919,2336
27599812,45433,27599921,2288
27604812,45431,27604920,2215
27609812,45434,27609921,2295
27614812,45401,27614919,2394
27619812,45371,27619921,2347
27624812,45289,27624920,2225
27629812,45211,27629922,2288
27634812,45125,27634920,2347
27639812,44996,27639922,2240
27644812,44891,27644919,2123
27649812,44726,27649921,2141
27654812,44591,27654919,2128
27659812,44406,27659922,2007
27664812,44289,27664920,1838
27669812,44110,27669921,1780
27674812,43950,27674919,1872
27679812,43752,27679922,1715
27684812,43618,27684919,1632
27689812,43488,27689922,1680
27694812,43338,27694920,1712
27699812,43196,27699921,1552
27704812,43121,27704919,1546
27709812,43011,27709921,1620
27714812,42927,27714919,1647
27719812,42845,27719921,1535
27724812,42769,27724919,1502
27729812,42722,27729921,1584
27734812,42683,27734919,1667
27739812,42635,27739922,1573
27744812,42643,27744920,1520
27749812,42579,27749921,1619
27754812,42580,27754919,1665
27759812,42623,27759922,1635
27764812,42576,27764919,1550
27769812,42563,27769922,1630
27774812,42568,27774919,1702
27779812,42600,27779922,1603
27784812,42628,27784920,1551
27789812,42642,27789922,1622
27794812,42676,27794920,1647
27799812,42701,27799922,1611
27804812,42715,27804919,1606
27809812,42724,27809921,1578
27814812,42794,27814920,1694
27819812,42823,27819922,1602
27824812,42837,27824919,1558
27829812,42905,27829922,1618
27834812,42930,27834919,1677
27839812,42957,27839922,1645
27844812,42993,27844919,1566
27849812,43042,27849921,1588
27854812,43051,27854920,1661
27859812,43071,27859921,1600
27864812,43168,27864920,1516
27869812,43171,27869922,1650
27874812,43260,27874919,1667
27879812,43249,27879921,1599
27884812,43264,27884920,1587
27889812,43305,27889922,1630
27894812,43294,27894919,1674
27899812,43359,27899922,1584
27904812,43356,27904919,1563
27909812,43373,27909922,1619
27914812,43412,27914920,1710
27919812,43418,27919921,1637
27924812,43451,27924919,1579
27929812,43448,27929922,1666
27934812,43462,27934920,1743
27939812,43476,27939922,1675
27944812,43422,27944920,1609
27949812,43472,27949921,1659
27954812,43440,27954920,1712
27959812,43448,27959922,1669
27964812,43417,27964920,1651
27969812,43448,27969921,1645
27974812,43415,27974919,1764
27979812,43410,27979922,1671
27984812,43377,27984919,1607
27989812,43374,27989922,1656
27994812,43360,27994920,1719
27999812,43339,27999921,1680
28004812,43332,28004919,1585
28009812,43297,28009922,1645
28014812,43283,28014919,1764
28020812,43340,28020922,1623
28025812,43316,28025920,1663
28030812,43278,28030921,1696
28035812,43265,28035919,1797
28040812,43288,28040922,1659
28045812,43298,28045919,1680
28050812,43280,28050922,1755
28055812,43326,28055919,1791
28060812,43313,28060921,1648
28065812,43312,28065919,1658
28070812,43325,28070922,1723
28075812,43300,28075919,1811
28080812,43335,28080922,1712
28085812,43333,28085919,1739
28090812,43359,28090922,1744
28095812,43350,28095919,1840
28100812,43403,28100922,1683
28105812,43441,28105920,1680
28110812,43459,28110922,1751
28115812,43490,28115920,1831
28120812,43484,28120922,1722
28125812,43501,28125919,1719
28130812,43548,28130922,1798
28135812,43592,28135919,1877
28140812,43623,28140922,1867
28145812,43620,28145919,1788
28150812,43667,28150922,1865
28155812,43707,28155920,1983
28160812,43724,28160922,1813
28165812,43766,28165919,1759
28170812,43803,28170922,1886
28175812,43861,28175920,1882
28180812,43901,28180922,1782
28185812,43911,28185920,1735
28190812,43988,28190922,1819
28195812,43977,28195919,1893
28200812,44031,28200922,1781
28205812,44058,28205920,1744
28210812,44086,28210922,1826
28215812,44117,28215919,1841
28220812,44170,28220922,1815
28225812,44192,28225919,1733
28230812,44221,28230922,1861
28235812,44270,28235920,1879
28240812,44325,28240922,1842
28245812,44326,28245920,1872
28250812,44402,28250922,1924
28255812,44404,28255919,2261
28260812,44454,28260922,2782
28265812,44464,28265920,3970
28270812,44498,28270922,4095
28275812,44531,28275920,4095
28280812,44580,28280921,4095
28285812,44607,28285920,2895
28290812,44649,28290922,1730
28295812,44712,28295920,1503
28300812,44745,28300922,1669
28305812,44790,28305919,1781
28310812,44800,28310922,1808
28315812,44845,28315919,1840
28320812,44848,28320922,1722
28325812,44908,28325920,1670
28330812,44896,28330922,1734
28335812,44952,28335920,1824
28340812,44963,28340922,1712
28345812,44995,28345919,1707
28350812,45004,28350922,1815
28355812,45026,28355920,1850
28360812,45038,28360922,1771
28365812,45065,28365919,1715
28370812,45107,28370922,1851
28375812,45114,28375919,1862
28380812,45125,28380922,1798
28385812,45191,28385920,1755
28390812,45199,28390922,1856
28395812,45235,28395919,1890
28400812,45246,28400922,1794
28405812,45241,28405919,1858
28410812,45273,28410922,1904
28415812,45318,28415919,2002
28420812,45305,28420922,1889
28425812,45318,28425919,1927
28430812,45352,28430922,2055
28435812,45357,28435920,2021
28440812,45395,28440922,2005
28445812,45367,28445919,2000
28450812,45410,28450922,2064
28455812,45455,28455920,2182
28460812,45438,28460922,2083
28465812,45486,28465919,2084
28470812,45439,28470922,2190
28475812,45478,28475919,2328
28480812,45439,28480921,2192
28485812,45447,28485920,2262
28490812,45475,28490922,2357
28495812,45461,28495919,2358
28500812,45408,28500921,2288
28505812,45390,28505919,2246
28510812,45285,28510922,2288
28515812,45179,28515920,2321
28520812,45104,28520922,2205
28525812,44976,28525920,2131
28530812,44844,28530921,2173
28535812,44698,28535920,2134
28540812,44560,28540922,1966
28545812,44363,28545919,1900
28550812,44244,28550922,1874
28555812,44084,28555920,1902
28560812,43916,28560922,1699
28565812,43729,28565920,1655
28570812,43592,28570922,1699
28575812,43438,28575919,1719
28580812,43330,28580922,1616
28585812,43229,28585919,1552
28590812,43086,28590922,1600
28595812,42999,28595919,1659
28600812,42884,28600922,1515
28605812,42815,28605920,1547
28610812,42795,28610922,1649
28615812,42727,28615919,1666
28620812,42696,28620922,1611
28625812,42675,28625920,1523
28630812,42646,28630921,1680
28635812,42633,28635919,1710
28640812,42624,28640922,1564
28645812,42650,28645919,1619
28650812,42631,28650922,1682
28655812,42661,28655920,1703
28660812,42643,28660922,1619
28665812,42684,28665919,1600
28670812,42713,28670922,1648
28675812,42719,28675919,1702
28680812,42723,28680922,1590
28685812,42772,28685920,1646
28690812,42801,28690922,1654
28695812,42834,28695920,1709
28700812,42844,28700922,1616
28705812,42879,28705919,1585
28710812,42933,28710922,1679
28715812,42945,28715920,1722
28720812,43009,28720922,1588
28725812,43006,28725919,1623
28731812,43070,28731921,1680
28736812,43095,28736919,1667
28741812,43158,28741922,1643
28746812,43177,28746919,1607
28751812,43204,28751922,1686
28756812,43252,28756919,1662
28761812,43268,28761921,1545
28766812,43314,28766920,1557
28771812,43355,28771922,1661
28776812,43387,28776919,1665
28781812,43403,28781922,1559
28786812,43431,28786919,1633
28791812,43431,28791922,1697
28796812,43433,28796920,1686
28801812,43473,28801922,1583
28806812,43481,28806920,1602
28811812,43520,28811922,1680
28816812,43525,28816919,1696
28821812,43517,28821922,1648
28826812,43505,28826919,1614
28831812,43532,28831921,1709
28836812,43532,28836920,1706
28841812,43527,28841922,1623
28846812,43516,28846920,1648
28851812,43475,28851922,1755
28856812,43534,28856920,1728
28861812,43548,28861922,1616
28866812,43477,28866920,1637
28871812,43490,28871922,1733
28876812,43468,28876919,1744
28881812,43495,28881921,1654
28886812,43492,28886920,1698
28891812,43516,28891922,1711
28896812,43494,28896919,1756
28901812,43517,28901922,1645
28906812,43485,28906920,1648
28911812,43467,28911922,1748
28916812,43472,28916920,1712
28921812,43516,28921921,1699
28926812,43510,28926920,1661
28931812,43528,28931921,1757
28936812,43514,28936919,1741
28941812,43545,28941921,1617
28946812,43540,28946920,1649
28951812,43572,28951922,1797
28956812,43583,28956919,1773
28961812,43606,28961921,1675
28966812,43635,28966919,1665
28971812,43648,28971922,1781
28976812,43724,28976919,1771
28981812,43726,28981922,1693
28986812,43761,28986920,1719
28991812,43799,28991922,1808
28996812,43815,28996919,1744
29001812,43863,29001922,1719
29006812,43921,29006919,1699
29011812,43921,29011922,1815
29016812,43999,29016920,1798
29021812,44049,29021922,1776
29026812,44053,29026919,1811
29031812,44086,29031921,1906
29036812,44119,29036920,1904
29041812,44167,29041921,1829
29046812,44194,29046919,1822
29051812,44246,29051921,1936
29056812,44241,29056919,1886
29061812,44267,29061921,1760
29066812,44325,29066920,1771
29071812,44365,29071922,1872
29076812,44381,29076919,1845
29081812,44407,29081922,1744
29086812,44435,29086920,1765
29091812,44479,29091922,1899
29096812,44522,29096919,1820
29101812,44547,29101921,1755
29106812,44582,29106920,1767
29111812,44582,29111922,1869
29116812,44635,29116919,1878
29121812,44691,29121922,1779
29126812,44661,29126919,1778
29131812,44703,29131921,1948
29136812,44731,29136919,1936
29141812,44736,29141921,1909
29146812,44767,29146920,2075
29151812,44789,29151922,2572
29156812,44825,29156920,3476
29161812,44854,29161922,4095
29166812,44894,29166920,4095
29171812,44880,29171922,4095
29176812,44879,29176919,4037
29181812,44907,29181921,2249
29186812,44947,29186919,1503
29191812,45000,29191921,1667
29196812,45047,29196920,1850
29201812,45033,29201922,1776
29206812,45124,29206919,1727
29211812,45077,29211922,1827
29216812,45107,29216919,1781
29221812,45154,29221922,1744
29226812,45184,29226919,1728
29231812,45180,29231922,1851
29236812,45201,29236919,1759
29241812,45202,29241922,1702
29246812,45206,29246919,1744
29251812,45229,29251922,1835
29256812,45235,29256920,1803
29261812,45262,29261922,1738
29266812,45244,29266920,1777
29271812,45284,29271921,1905
29276812,45318,29276920,1839
29281812,45350,29281921,1805
29286812,45327,29286919,1783
29291812,45351,29291922,1937
29296812,45342,29296920,1927
29301812,45340,29301921,1837
29306812,45361,29306919,1855
29311812,45388,29311922,1981
29316812,45381,29316919,1980
29321812,45391,29321922,1894
29326812,45438,29326919,1949
29331812,45434,29331921,2094
29336812,45454,29336919,2083
29341812,45454,29341922,2019
29346812,45486,29346920,2039
29351812,45509,29351921,2186
29356812,45539,29356920,2198
29361812,45532,29361921,2143
29366812,45539,29366919,2174
29371812,45548,29371922,2288
29376812,45552,29376920,2274
29381812,45578,29381922,2251
29386812,45551,29386920,2263
29391812,45540,29391921,2355
29396812,45494,29396919,2310
29401812,45422,29401921,2207
29406812,45366,29406919,2245
29411812,45282,29411922,2318
29416812,45137,29416919,2285
29422812,45038,29422922,2110
29427812,44899,29427919,2035
29432812,44766,29432922,2113
29437812,44621,29437920,2028
29442812,44475,29442922,1854
29447812,44274,29447920,1745
29452812,44118,29452922,1811
29457812,43965,29457919,1711
29462812,43798,29462921,1647
29467812,43680,29467920,1605
29472812,43526,29472921,1659
29477812,43399,29477920,1625
29482812,43305,29482922,1488
29487812,43186,29487919,1534
29492812,43146,29492922,1602
29497812,43060,29497919,1551
29502812,42997,29502922,1489
29507812,42926,29507919,1521
29512812,42861,29512922,1595
29517812,42845,29517919,1555
29522812,42799,29522922,1543
29527812,42805,29527919,1567
29532812,42792,29532921,1667
29537812,42806,29537919,1552
29542812,42781,29542921,1525
29547812,42808,29547920,1610
29552812,42849,29552922,1715
29557812,42828,29557919,1613
29562812,42900,29562922,1570
29567812,42884,29567919,1535
29572812,42943,29572922,1667
29577812,43007,29577919,1609
29582812,43022,29582921,1549
29587812,43045,29587919,1585
29592812,43100,29592922,1725
29597812,43140,29597920,1657
29602812,43166,29602922,1577
29607812,43230,29607919,1591
29612812,43277,29612922,1734
29617812,43320,29617920,1648
29622812,43367,29622922,1559
29627812,43396,29627920,1565
29632812,43461,29632921,1675
29637812,43523,29637919,1568
29642812,43559,29642921,1603
29647812,43612,29647919,1590
29652812,43649,29652922,1657
29657812,43689,29657920,1648
29662812,43746,29662921,1603
29667812,43786,29667920,1613
29672812,43839,29672921,1680
29677812,43895,29677919,1639
29682812,43910,29682921,1531
29687812,43910,29687920,1585
29692812,43991,29692921,1680
29697812,44036,29697919,1584
29702812,44017,29702922,1591
29707812,44044,29707919,1655
29712812,44068,29712922,1744
29717812,44052,29717919,1631
29722812,44070,29722922,1557
29727812,44053,29727919,1616
29732812,44068,29732922,1699
29737812,44066,29737920,1619
29742812,44061,29742922,1607
29747812,44066,29747920,1654
29752812,44041,29752921,1776
29757812,44060,29757920,1692
29762812,44011,29762922,1597
29767812,44009,29767920,1619
29772812,44003,29772922,1673
29777812,43975,29777920,1682
29782812,43983,29782922,1574
29787812,43981,29787919,1687
29792812,43962,29792921,1783
29797812,43964,29797920,1665
29802812,43992,29802921,1654
29807812,43986,29807919,1670
29812812,44007,29812922,1794
29817812,43967,29817919,1727
29822812,43986,29822922,1663
29827812,44011,29827920,1687
29832812,44035,29832922,1824
29837812,44003,29837919,1744
29842812,44017,29842921,1641
29847812,44008,29847919,1671
29852812,44060,29852922,1797
29857812,44114,29857919,1725
29862812,44041,29862921,1680
29867812,44080,29867920,1713
29872812,44077,29872922,1815
29877812,44097,29877919,1789
29882812,44135,29882921,1724
29887812,44130,29887919,1742
29892812,44184,29892922,1842
29897812,44192,29897920,1796
29902812,44231,29902922,1757
29907812,44267,29907919,1878
29912812,44284,29912921,1898
29917812,44302,29917919,1870
29922812,44329,29922921,1763
29927812,44356,29927919,1783
29932812,44340,29932922,1895
29937812,44412,29937920,1839
29942812,44436,29942922,1714
29947812,44491,29947919,1776
29952812,44499,29952922,1863
29957812,44495,29957919,1817
29962812,44520,29962922,1721
29967812,44549,29967920,1789
29972812,44575,29972922,1909
29977812,44559,29977920,1794
29982812,44568,29982922,1759
29987812,44600,29987919,1767
29992812,44639,29992921,1879
29997812,44666,29997920,1834
30002812,44679,30002922,1785
30007812,44719,30007919,1831
30012812,44779,30012921,1969
30017812,44755,30017919,1998
30022812,44796,30022921,2158
30027812,44821,30027919,2725
30032812,44817,30032922,4095
30037812,44839,30037919,4095
30042812,44854,30042922,4095
30047812,44884,30047919,4095
30052812,44925,30052921,2862
30057812,44946,30057919,1611
30062812,44969,30062921,1419
30067812,44984,30067919,1669
30072812,45017,30072922,1905
30077812,45006,30077919,1850
30082812,45036,30082922,1744
30087812,45054,30087920,1781
30092812,45073,30092922,1805
30097812,45081,30097919,1721
30102812,45102,30102922,1746
30108812,45139,30108919,1776
30113812,45118,30113921,1885
30118812,45141,30118920,1757
30123812,45187,30123922,1700
30128812,45173,30128919,1805
30133812,45182,30133921,1877
30138812,45176,30138920,1809
30143812,45188,30143922,1803
30148812,45180,30148919,1891
30153812,45191,30153922,1962
30158812,45212,30158919,1863
30163812,45250,30163922,1821
30168812,45233,30168919,1900
30173812,45284,30173922,1989
30178812,45287,30178920,1939
30183812,45311,30183922,1947
30188812,45328,30188920,1943
30193812,45310,30193922,2086
30198812,45336,30198919,1929
30203812,45347,30203922,1958
30208812,45367,30208920,2042
30213812,45407,30213921,2148
30218812,45416,30218919,2093
30223812,45442,30223922,2091
30228812,45424,30228919,2189
30233812,45480,30233922,2313
30238812,45508,30238919,2247
30243812,45514,30243922,2205
30248812,45550,30248920,2284
30253812,45522,30253922,2341
30258812,45580,30258919,2263
30263812,45565,30263922,2268
30268812,45529,30268919,2340
30273812,45509,30273921,2411
30278812,45433,30278919,2288
30283812,45372,30283922,2235
30288812,45298,30288920,2302
30293812,45181,30293922,2348
30298812,45095,30298919,2159
30303812,44963,30303921,2086
30308812,44821,30308919,2017
30313812,44687,30313921,2023
30318812,44551,30318919,1843
30323812,44394,30323921,1762
30328812,44214,30328919,1755
30333812,44143,30333922,1826
30338812,43963,30338919,1680
30343812,43848,30343922,1616
30348812,43696,30348920,1623
30353812,43623,30353921,1699
30358812,43526,30358919,1535
30363812,43421,30363921,1569
30368812,43345,30368919,1646
30373812,43284,30373921,1641
30378812,43265,30378919,1552
30383812,43250,30383922,1549
30388812,43195,30388919,1619
30393812,43144,30393922,1721
30398812,43144,30398920,1586
30403812,43159,30403922,1598
30408812,43123,30408919,1680
30413812,43117,30413922,1743
30418812,43150,30418919,1611
30423812,43153,30423922,1614
30428812,43177,30428919,1680
30433812,43173,30433921,1747
30438812,43225,30438919,1586
30443812,43231,30443922,1572
30448812,43280,30448919,1681
30453812,43293,30453922,1775
30458812,43307,30458920,1664
30463812,43346,30463922,1591
30468812,43415,30468919,1710
30473812,43471,30473922,1762
30478812,43504,30478920,1645
30483812,43544,30483922,1603
30488812,43568,30488920,1664
30493812,43638,30493922,1771
30498812,43659,30498919,1666
30503812,43704,30503922,1619
30508812,43780,30508919,1709
30513812,43809,30513922,1737
30518812,43851,30518919,1607
30523812,43896,30523921,1591
30528812,43946,30528919,1673
30533812,43996,30533922,1735
30538812,44004,30538919,1623
30543812,44042,30543922,1631
30548812,44079,30548920,1712
30553812,44055,30553922,1727
30558812,44119,30558919,1653
30563812,44133,30563921,1620
30568812,44179,30568919,1666
30573812,44195,30573922,1750
30578812,44191,30578920,1658
30583812,44212,30583921,1582
30588812,44217,30588919,1701
30593812,44239,30593922,1747
30598812,44208,30598919,1643
30603812,44229,30603921,1611
30608812,44211,30608919,1749
30613812,44176,30613921,1712
30618812,44191,30618919,1675
30623812,44169,30623922,1642
30628812,44167,30628919,1723
30633812,44132,30633922,1808
30638812,44122,30638920,1630
30643812,44115,30643922,1638
30648812,44102,30648919,1719
30653812,44058,30653922,1767
30658812,44056,30658919,1680
30663812,44024,30663922,1691
30668812,44013,30668919,1762
30673812,44023,30673921,1839
30678812,44014,30678920,1712
30683812,44020,30683922,1680
30688812,44020,30688919,1689
30693812,44004,30693921,1824
30698812,44003,30698919,1686
30703812,43981,30703922,1695
30708812,44008,30708919,1687
30713812,43997,30713922,1829
30718812,44005,30718919,1683
30723812,44035,30723922,1712
30728812,44058,30728919,1749
30733812,44034,30733922,1837
30738812,44062,30738919,1687
30743812,44091,30743922,1683
30748812,44105,30748919,1767
30753812,44171,30753921,1827
30758812,44170,30758919,1733
30763812,44161,30763922,1713
30768812,44172,30768919,1751
30773812,44190,30773922,1841
30778812,44218,30778919,1783
30783812,44259,30783921,1753
30789812,44256,30789920,1931
30794812,44303,30794922,1952
30799812,44313,30799920,1891
30804812,44315,30804922,1835
30809812,44334,30809920,1873
30814812,44370,30814922,1905
30819812,44365,30819920,1817
30824812,44390,30824922,1765
30829812,44416,30829919,1871
30834812,44434,30834921,1859
30839812,44463,30839919,1761
30844812,44462,30844922,1714
30849812,44489,30849919,1834
30854812,44536,30854922,1869
30859812,44582,30859919,1797
30864812,44582,30864922,1776
30869812,44614,30869920,1881
30874812,44636,30874922,1905
30879812,44668,30879919,1751
30884812,44704,30884921,1810
30889812,44723,30889919,1911
30894812,44783,30894921,1940
30899812,44808,30899919,1855
30904812,44817,30904922,1931
30909812,44825,30909919,2369
30914812,44875,30914922,3167
30919812,44900,30919920,4095
30924812,44935,30924922,4095
30929812,44973,30929920,4095
30934812,44972,30934922,4095
30939812,45038,30939919,2334
30944812,45078,30944922,1489
30949812,45099,30949920,1597
30954812,45134,30954922,1808
30959812,45121,30959920,1794
30964812,45173,30964921,1811
30969812,45183,30969920,1779
30974812,45211,30974922,1775
30979812,45218,30979919,1687
30984812,45272,30984922,1728
30989812,45303,30989919,1786
30994812,45305,30994921,1817
30999812,45351,30999920,1680
31004812,45358,31004922,1683
31009812,45389,31009919,1818
31014812,45409,31014921,1808
31019812,45426,31019919,1751
31024812,45424,31024922,1744
31029812,45503,31029919,1841
31034812,45561,31034922,1881
31039812,45538,31039919,1755
31044812,45553,31044922,1803
31049812,45571,31049920,1938
31054812,45634,31054922,1975
31059812,45655,31059920,1868
31064812,45670,31064922,1822
31069812,45744,31069919,1997
31074812,45737,31074922,1990
31079812,45728,31079919,1903
31084812,45787,31084922,1939
31089812,45798,31089920,2071
31094812,45816,31094922,2129
31099812,45842,31099919,1992
31104812,45877,31104921,2062
31109812,45885,31109919,2145
31114812,45919,31114922,2211
31119812,45920,31119919,2128
31124812,45954,31124922,2189
31129812,45968,31129920,2288
31134812,45982,31134922,2306
31139812,45961,31139919,2256
31144812,45945,31144922,2303
31149812,45929,31149920,2330
31154812,45862,31154922,2391
31159812,45802,31159919,2299
31164812,45730,31164922,2259
31169812,45627,31169919,2333
31174812,45512,31174922,2283
31179812,45411,31179920,2111
31184812,45226,31184922,2096
31189812,45120,31189919,2169
31194812,44911,31194922,2084
31199812,44758,31199919,1913
31204812,44564,31204921,1798
31209812,44410,31209920,1870
31214812,44192,31214922,1808
31219812,44052,31219920,1648
31224812,43875,31224921,1645
31229812,43695,31229919,1661
31234812,43605,31234921,1656
31239812,43516,31239919,1615
31244812,43402,31244922,1518
31249812,43303,31249919,1648
31254812,43245,31254922,1648
31259812,43171,31259919,1507
31264812,43101,31264922,1552
31269812,43085,31269919,1618
31274812,43033,31274922,1670
31279812,42987,31279920,1571
31284812,42957,31284922,1558
31289812,42962,31289920,1648
31294812,42951,31294922,1745
31299812,42949,31299919,1549
31304812,42899,31304922,1595
31309812,42952,31309920,1729
31314812,42929,31314922,1712
31319812,42965,31319919,1606
31324812,43012,31324921,1599
31329812,43003,31329920,1661
31334812,42966,31334922,1694
31339812,43017,31339919,1604
31344812,43022,31344921,1626
31349812,43052,31349919,1699
31354812,43122,31354922,1702
31359812,43115,31359920,1623
31364812,43159,31364922,1602
31369812,43196,31369919,1681
31374812,43240,31374922,1690
31379812,43242,31379920,1579
31384812,43294,31384922,1606
31389812,43309,31389920,1639
31394812,43365,31394922,1673
31399812,43401,31399920,1555
31404812,43439,31404922,1580
31409812,43474,31409919,1639
31414812,43510,31414922,1715
31419812,43555,31419920,1616
31424812,43610,31424921,1587
31429812,43595,31429919,1657
31434812,43658,31434921,1717
31439812,43683,31439920,1570
31444812,43682,31444922,1601
31449812,43676,31449920,1713
31454812,43699,31454921,1712
31459812,43717,31459919,1595
31465812,43702,31465922,1617
31470812,43743,31470919,1735
31475812,43704,31475922,1666
31480812,43717,31480920,1584
31485812,43714,31485921,1610
31490812,43698,31490920,1741
31495812,43670,31495921,1743
31500812,43685,31500920,1623
31505812,43644,31505921,1671
31510812,43636,31510919,1712
31515812,43636,31515922,1733
31520812,43598,31520920,1639
31525812,43610,31525922,1663
31530812,43554,31530920,1743
31535812,43552,31535922,1713
31540812,43534,31540919,1641
31545812,43550,31545922,1637
31550812,43523,31550919,1757
31555812,43529,31555921,1742
31560812,43484,31560919,1636
31565812,43476,31565922,1689
31570812,43528,31570919,1724
31575812,43512,31575922,1747
31580812,43521,31580919,1655
31585812,43532,31585921,1678
31590812,43530,31590919,1762
31595812,43560,31595922,1767
31600812,43542,31600920,1694
31605812,43572,31605921,1653
31610812,43559,31610920,1793
31615812,43673,31615922,1750
31620812,43674,31620919,1670
31625812,43700,31625921,1671
31630812,43700,31630919,1823
31635812,43713,31635921,1794
31640812,43760,31640919,1665
31645812,43779,31645922,1698
31650812,43802,31650919,1855
31655812,43840,31655922,1783
31660812,43875,31660919,1741
31665812,43893,31665922,1770
31670812,43925,31670920,1845
31675812,43932,31675921,1893
31680812,43950,31680919,1851
31685812,44002,31685922,1836
31690812,44042,31690919,1954
31695812,44052,31695922,1907
31700812,44125,31700920,1792
31705812,44178,31705921,1821
31710812,44200,31710919,1904
31715812,44235,31715922,1847
31720812,44256,31720919,1803
31725812,44297,31725922,1727
31730812,44354,31730919,1837
31735812,44387,31735922,1787
31740812,44388,31740920,1743
31745812,44443,31745921,1775
31750812,44515,31750920,1863
31755812,44533,31755921,1831
31760812,44569,31760919,1690
31765812,44596,31765922,1745
31770812,44648,31770920,1862
31775812,44683,31775921,1895
31780812,44703,31780919,1845
31785812,44721,31785922,1806
31790812,44762,31790919,1940
31795812,44819,31795922,2137
31800812,44819,31800920,2658
31805812,44844,31805922,3815
31810812,44864,31810919,4095
31815812,44881,31815922,4095
31820812,44909,31820919,4095
31825812,44942,31825922,3171
31830812,44982,31830919,1935
31835812,45024,31835922,1488
31840812,45035,31840920,1615
31845812,45019,31845922,1775
31850812,45075,31850920,1920
31855812,45101,31855922,1835
31860812,45109,31860920,1723
31865812,45124,31865922,1652
31870812,45156,31870920,1761
31875812,45152,31875922,1712
31880812,45149,31880920,1695
31885812,45192,31885921,1706
31890812,45284,31890919,1758
31895812,45219,31895921,1781
31900812,45224,31900919,1735
31905812,45239,31905922,1742
31910812,45251,31910920,1808
31915812,45309,31915922,1807
31920812,45325,31920920,1728
31925812,45352,31925922,1781
31930812,45375,31930919,1886
31935812,45383,31935922,1857
31940812,45382,31940920,1837
31945812,45401,31945922,1803
31950812,45444,31950919,1950
31955812,45438,31955922,1905
31960812,45456,31960919,1843
31965812,45483,31965922,1899
31970812,45499,31970920,2059
31975812,45509,31975922,1999
31980812,45523,31980919,1939
31985812,45494,31985922,1979
31990812,45529,31990919,2146
31995812,45509,31995922,2116
32000812,45570,32000920,2055
32005812,45562,32005921,2103
32010812,45602,32010919,2229
32015812,45559,32015922,2229
32020812,45528,32020919,2235
32025812,45563,32025921,2221
32030812,45579,32030920,2375
32035812,45497,32035922,2292
32040812,45467,32040920,2242
32045812,45414,32045922,2289
32050812,45336,32050919,2397
32055812,45240,32055922,2297
32060812,45101,32060919,2183
32065812,44963,32065921,2192
32070812,44849,32070920,2227
32075812,44638,32075922,2142
32080812,44515,32080919,1990
32085812,44359,32085922,1925
32090812,44160,32090919,1969
32095812,43987,32095922,1859
32100812,43806,32100919,1733
32105812,43656,32105922,1720
32110812,43524,32110920,1771
32115812,43400,32115922,1675
32120812,43264,32120919,1613
32125812,43127,32125922,1597
32130812,43007,32130920,1681
32135812,42923,32135922,1575
32140812,42795,32140919,1488
32146812,42756,32146922,1567
32151812,42683,32151919,1628
32156812,42610,32156922,1582
32161812,42613,32161920,1520
32166812,42569,32166921,1558
32171812,42527,32171919,1651
32176812,42496,32176922,1595
32181812,42472,32181919,1614
32186812,42481,32186922,1625
32191812,42505,32191919,1702
32196812,42516,32196922,1664
32201812,42501,32201919,1597
32206812,42525,32206921,1625
32211812,42520,32211920,1725
32216812,42549,32216922,1613
32221812,42570,32221919,1621
32226812,42594,32226922,1618
32231812,42608,32231920,1743
32236812,42649,32236922,1652
32241812,42669,32241919,1557
32246812,42697,32246922,1638
32251812,42727,32251919,1726
32256812,42781,32256922,1683
32261812,42807,32261920,1580
32266812,42871,32266922,1647
32271812,42882,32271920,1727
32276812,42994,32276922,1631
32281812,42998,32281920,1621
32286812,43061,32286921,1599
32291812,43084,32291919,1737
32296812,43151,32296921,1653
32301812,43191,32301920,1591
32306812,43294,32306922,1631
32311812,43295,32311920,1733
32316812,43295,32316922,1614
32321812,43340,32321920,1546
32326812,43381,32326922,1635
32331812,43412,32331920,1712
32336812,43456,32336922,1653
32341812,43436,32341920,1617
32346812,43479,32346922,1638
32351812,43483,32351920,1727
32356812,43509,32356922,1722
32361812,43517,32361919,1605
32366812,43507,32366922,1633
32371812,43547,32371919,1744
32376812,43515,32376922,1695
32381812,43540,32381920,1655
32386812,43521,32386922,1683
32391812,43541,32391919,1730
32396812,43515,32396922,1684
32401812,43546,32401919,1673
32406812,43491,32406922,1687
32411812,43530,32411919,1786
32416812,43541,32416922,1652
32421812,43557,32421919,1673
32426812,43546,32426922,1684
32431812,43566,32431919,1795
32436812,43569,32436922,1716
32441812,43532,32441920,1673
32446812,43561,32446921,1703
32451812,43573,32451920,1803
32456812,43554,32456922,1706
32461812,43562,32461920,1661
32466812,43579,32466921,1710
32471812,43610,32471920,1793
32476812,43598,32476921,1706
32481812,43614,32481920,1728
32486812,43651,32486922,1732
32491812,43644,32491919,1840
32496812,43671,32496922,1741
32501812,43688,32501919,1731
32506812,43711,32506921,1727
32511812,43739,32511920,1840
32516812,43771,32516922,1745
32521812,43777,32521920,1712
32526812,43787,32526922,1760
32531812,43829,32531920,1840
32536812,43815,32536922,1751
32541812,43844,32541919,1745
32546812,43893,32546921,1861
32551812,43991,32551920,2001
32556812,43926,32556921,1856
32561812,43964,32561919,1843
32566812,43983,32566922,1897
32571812,44035,32571919,1875
32576812,44078,32576922,1831
32581812,44056,32581920,1821
32586812,44067,32586921,1806
32591812,44081,32591919,1885
32596812,44136,32596922,1759
32601812,44160,32601920,1717
32606812,44216,32606921,1776
32611812,44231,32611919,1898
32616812,44258,32616922,1825
32621812,44282,32621919,1710
32626812,44301,32626922,1742
32631812,44348,32631919,1897
32636812,44383,32636921,1829
32641812,44407,32641919,1787
32646812,44432,32646922,1825
32651812,44432,32651920,1951
32656812,44446,32656922,1938
32661812,44510,32661919,2006
32666812,44546,32666922,2474
32671812,44526,32671920,3509
32676812,44554,32676922,4095
32681812,44536,32681919,4095
32686812,44611,32686922,4095
32691812,44623,32691920,4073
32696812,44636,32696921,2206
32701812,44622,32701920,1499
32706812,44664,32706922,1553
32711812,44680,32711919,1815
32716812,44740,32716922,1842
32721812,44731,32721919,1810
32726812,44800,32726922,1754
32731812,44798,32731919,1821
32736812,44805,32736922,1776
32741812,44834,32741919,1729
32746812,44856,32746922,1714
32751812,44869,32751919,1835
32756812,44879,32756922,1750
32761812,44904,32761919,1660
32766812,44904,32766922,1725
32771812,44935,32771920,1847
32776812,44931,32776922,1817
32781812,44948,32781919,1745
32786812,45006,32786922,1839
32791812,44986,32791919,1871
32796812,45029,32796922,1851
32801812,45020,32801920,1776
32806812,45031,32806921,1835
32811812,45053,32811919,1953
32816812,45068,32816922,1875
32821812,45047,32821920,1872
32826812,45083,32826922,1897
32832812,45103,32832919,2055
32837812,45110,32837922,1967
32842812,45101,32842919,1911
32847812,45153,32847921,2021
32852812,45127,32852920,2150
32857812,45182,32857922,1998
32862812,45147,32862919,2062
32867812,45175,32867922,2157
32872812,45186,32872920,2289
32877812,45189,32877922,2165
32882812,45207,32882919,2159
32887812,45203,32887921,2245
32892812,45210,32892919,2336
32897812,45199,32897922,2245
32902812,45221,32902919,2224
32907812,45153,32907922,2330
32912812,45080,32912920,2352
32917812,45024,32917922,2230
32922812,44951,32922919,2238
32927812,44813,32927922,2269
32932812,44742,32932919,2289
32937812,44611,32937921,2160
32942812,44432,32942920,2042
32947812,44306,32947922,2063
32952812,44111,32952920,2067
32957812,43993,32957922,1841
32962812,43835,32962919,1809
32967812,43674,32967922,1741
32972812,43497,32972920,1781
32977812,43362,32977922,1636
32982812,43271,32982920,1616
32987812,43124,32987922,1599
32992812,43028,32992920,1658
32997812,42919,32997922,1543
33002812,42827,33002920,1501
33007812,42729,33007922,1549
33012812,42680,33012920,1646
33017812,42600,33017922,1547
33022812,42557,33022920,1505
33027812,42533,33027922,1570
33032812,42514,33032919,1648
33037812,42497,33037922,1522
33042812,42463,33042919,1566
33047812,42457,33047922,1615
33052812,42498,33052919,1682
33057812,42516,33057922,1607
33062812,42511,33062919,1586
33067812,42536,33067922,1623
33072812,42569,33072920,1685
33077812,42592,33077922,1569
33082812,42622,33082919,1551
33087812,42681,33087922,1616
33092812,42691,33092920,1679
33097812,42761,33097921,1589
33102812,42810,33102920,1570
33107812,42838,33107922,1650
33112812,42881,33112919,1680
33117812,42955,33117922,1568
33122812,42974,33122920,1567
33127812,42995,33127922,1602
33132812,43085,33132920,1678
33137812,43112,33137922,1563
33142812,43172,33142920,1587
33147812,43194,33147921,1584
33152812,43254,33152919,1676
33157812,43302,33157922,1605
33162812,43342,33162919,1523
33167812,43412,33167921,1616
33172812,43417,33172920,1707
33177812,43466,33177922,1579
33182812,43488,33182919,1585
33187812,43515,33187922,1654
33192812,43571,33192919,1728
33197812,43592,33197922,1589
33202812,43635,33202920,1584
33207812,43667,33207922,1651
33212812,43681,33212919,1664
33217812,43643,33217921,1634
33222812,43672,33222919,1546
33227812,43664,33227921,1599
33232812,43706,33232919,1730
33237812,43667,33237922,1617
33242812,43692,33242920,1605
33247812,43651,33247921,1616
